RAW Data export file (tab separated)


Client:	,kozawa
Session:	kozawa2
Date:	06-07-2020
Time:	10:30:22
Duration:	119	Seconds.
Output rate:	128	Samples/sec.

hh:mm:ss	128 SPS	32 SPS	
TIME	Sensor-G:BVP	HR (BVP)	Events	Segments	


00:00:00	13.687	70.000			
00:00:00	13.991	70.000			
00:00:00	14.671	70.000			
00:00:00	14.423	70.000			
00:00:00	14.317	70.000			
00:00:00	13.935	70.000			
00:00:00	13.066	70.000			
00:00:00	12.769	70.000			
00:00:00	11.790	70.000			
00:00:00	11.246	70.000			
00:00:00	10.468	70.000			
00:00:00	9.491	70.000			
00:00:00	9.184	70.000			
00:00:00	8.388	70.000			
00:00:00	7.665	70.000			
00:00:00	7.268	70.000			
00:00:00	6.232	70.000			
00:00:00	5.726	70.000			
00:00:00	4.645	70.000			
00:00:00	3.644	70.000			
00:00:00	3.045	70.000			
00:00:00	1.815	70.000			
00:00:00	1.451	70.000			
00:00:00	1.044	70.000			
00:00:00	0.529	70.000			
00:00:00	0.434	70.000			
00:00:00	-0.511	70.000			
00:00:00	-0.716	70.000			
00:00:00	-0.935	70.000			
00:00:00	-1.189	70.000			
00:00:00	-0.732	70.000			
00:00:00	-1.006	70.000			
00:00:00	-0.834	70.000			
00:00:00	-0.515	70.000			
00:00:00	-0.579	70.000			
00:00:00	0.089	70.000			
00:00:00	-0.037	70.000			
00:00:00	0.069	70.000			
00:00:00	0.320	70.000			
00:00:00	-0.255	70.000			
00:00:00	0.081	70.000			
00:00:00	-0.098	70.000			
00:00:00	-0.261	70.000			
00:00:00	-0.096	70.000			
00:00:00	-0.642	70.000			
00:00:00	-0.540	70.000			
00:00:00	-0.912	70.000			
00:00:00	-1.480	70.000			
00:00:00	-1.269	70.000			
00:00:00	-1.721	70.000			
00:00:00	-1.735	70.000			
00:00:00	-1.764	70.000			
00:00:00	-2.208	70.000			
00:00:00	-1.963	70.000			
00:00:00	-2.135	70.000			
00:00:00	-1.871	70.000			
00:00:00	-1.621	70.000			
00:00:00	-1.974	70.000			
00:00:00	-1.555	70.000			
00:00:00	-1.758	70.000			
00:00:00	-1.798	70.000			
00:00:00	-1.653	70.000			
00:00:00	-2.101	70.000			
00:00:00	-1.906	70.000			
00:00:00	-2.144	70.000			
00:00:00	-2.209	70.000			
00:00:00	-1.811	70.000			
00:00:00	-2.010	70.000			
00:00:00	-1.538	70.000			
00:00:00	-1.405	70.000			
00:00:00	-1.649	70.000			
00:00:00	-1.418	70.000			
00:00:00	-1.920	70.000			
00:00:00	-1.639	70.000			
00:00:00	-1.400	70.000			
00:00:00	-1.612	70.000			
00:00:00	-0.938	70.000			
00:00:00	-1.042	70.000			
00:00:00	-0.959	70.000			
00:00:00	-0.788	70.000			
00:00:00	-1.091	70.000			
00:00:00	-0.563	70.000			
00:00:00	-0.593	70.000			
00:00:00	-0.487	70.000			
00:00:00	-0.243	70.000			
00:00:00	-0.645	70.000			
00:00:00	-0.291	70.000			
00:00:00	-0.458	70.000			
00:00:00	-0.882	70.000			
00:00:00	-0.830	70.000			
00:00:00	-1.274	70.000			
00:00:00	-0.952	70.000			
00:00:00	-0.927	70.000			
00:00:00	-1.140	70.000			
00:00:00	-0.347	70.000			
00:00:00	-0.021	70.000			
00:00:00	0.954	70.000			
00:00:00	2.082	70.000			
00:00:00	2.878	70.000			
00:00:00	4.687	70.000			
00:00:00	5.934	70.000			
00:00:00	7.636	70.000			
00:00:00	9.540	70.000			
00:00:00	10.774	70.000			
00:00:00	12.475	70.000			
00:00:00	13.412	70.000			
00:00:00	14.359	70.000			
00:00:00	15.360	70.000			
00:00:00	15.359	70.000			
00:00:00	15.637	70.000			
00:00:00	15.310	70.000			
00:00:00	14.500	70.000			
00:00:00	14.310	70.000			
00:00:00	13.533	70.000			
00:00:00	13.238	70.000			
00:00:00	12.617	70.000			
00:00:00	11.686	70.000			
00:00:00	11.683	70.000			
00:00:00	10.903	70.000			
00:00:00	10.318	70.000			
00:00:00	9.703	70.000			
00:00:00	8.563	70.000			
00:00:00	8.119	70.000			
00:00:00	7.041	70.000			
00:00:00	6.278	70.000			
00:00:00	5.687	70.000			
00:00:00	4.567	70.000			
00:00:00	4.102	70.000			
00:00:01	3.065	70.000			
00:00:01	1.927	70.000			
00:00:01	1.265	70.000			
00:00:01	-0.029	70.000			
00:00:01	-0.427	70.000			
00:00:01	-0.958	70.000			
00:00:01	-1.563	70.000			
00:00:01	-1.383	70.000			
00:00:01	-1.778	70.000			
00:00:01	-1.438	70.000			
00:00:01	-1.242	70.000			
00:00:01	-1.591	70.000			
00:00:01	-1.068	70.000			
00:00:01	-1.371	70.000			
00:00:01	-1.102	70.000			
00:00:01	-0.832	70.000			
00:00:01	-1.121	70.000			
00:00:01	-0.574	70.000			
00:00:01	-0.813	70.000			
00:00:01	-0.929	70.000			
00:00:01	-0.639	70.000			
00:00:01	-0.954	70.000			
00:00:01	-0.640	70.000			
00:00:01	-0.962	70.000			
00:00:01	-1.304	70.000			
00:00:01	-1.080	70.000			
00:00:01	-1.694	70.000			
00:00:01	-1.446	70.000			
00:00:01	-1.503	70.000			
00:00:01	-1.867	70.000			
00:00:01	-1.572	70.000			
00:00:01	-1.896	70.000			
00:00:01	-1.706	70.000			
00:00:01	-1.696	70.000			
00:00:01	-2.139	70.000			
00:00:01	-1.804	70.000			
00:00:01	-2.357	70.000			
00:00:01	-2.396	70.000			
00:00:01	-2.329	70.000			
00:00:01	-2.782	70.000			
00:00:01	-2.487	70.000			
00:00:01	-2.828	70.000			
00:00:01	-3.041	70.000			
00:00:01	-2.727	70.000			
00:00:01	-3.023	70.000			
00:00:01	-2.629	70.000			
00:00:01	-2.602	70.000			
00:00:01	-2.631	70.000			
00:00:01	-2.397	70.000			
00:00:01	-2.896	70.000			
00:00:01	-2.578	70.000			
00:00:01	-2.427	70.000			
00:00:01	-2.333	70.000			
00:00:01	-1.615	70.000			
00:00:01	-1.794	70.000			
00:00:01	-1.613	70.000			
00:00:01	-1.410	70.000			
00:00:01	-1.612	70.000			
00:00:01	-1.008	70.000			
00:00:01	-1.035	70.000			
00:00:01	-0.964	70.000			
00:00:01	-0.755	70.000			
00:00:01	-1.187	70.000			
00:00:01	-0.803	70.000			
00:00:01	-0.892	70.000			
00:00:01	-0.971	70.000			
00:00:01	-0.792	70.000			
00:00:01	-1.261	70.000			
00:00:01	-1.006	70.000			
00:00:01	-1.092	70.000			
00:00:01	-1.493	70.000			
00:00:01	-1.399	70.000			
00:00:01	-2.006	70.000			
00:00:01	-1.786	70.000			
00:00:01	-1.555	70.000			
00:00:01	-1.387	70.000			
00:00:01	-0.062	70.000			
00:00:01	0.883	70.000			
00:00:01	2.242	70.000			
00:00:01	3.803	70.000			
00:00:01	5.215	70.000			
00:00:01	7.643	70.000			
00:00:01	9.390	70.000			
00:00:01	11.119	70.000			
00:00:01	12.864	70.000			
00:00:01	13.764	70.000			
00:00:01	15.187	70.000			
00:00:01	15.643	70.000			
00:00:01	15.785	70.000			
00:00:01	16.210	70.000			
00:00:01	15.777	70.000			
00:00:01	15.816	70.000			
00:00:01	15.378	70.000			
00:00:01	15.005	70.000			
00:00:01	14.891	70.000			
00:00:01	13.664	70.000			
00:00:01	12.924	70.000			
00:00:01	12.109	70.000			
00:00:01	10.973	70.000			
00:00:01	10.579	70.000			
00:00:01	9.274	34.133			
00:00:01	8.629	34.133			
00:00:01	8.254	34.133			
00:00:01	7.063	34.133			
00:00:01	6.638	34.138			
00:00:01	5.519	34.138			
00:00:01	4.470	34.138			
00:00:01	3.804	34.138			
00:00:01	2.347	34.138			
00:00:01	1.734	34.138			
00:00:01	0.779	34.138			
00:00:01	-0.001	34.138			
00:00:01	-0.103	34.138			
00:00:01	-0.846	34.138			
00:00:01	-0.833	34.138			
00:00:01	-1.004	34.138			
00:00:01	-1.408	34.138			
00:00:01	-1.004	34.138			
00:00:01	-1.218	34.138			
00:00:01	-1.010	34.138			
00:00:01	-0.732	34.138			
00:00:01	-0.837	34.138			
00:00:01	-0.334	34.138			
00:00:01	-0.545	34.138			
00:00:01	-0.540	34.138			
00:00:01	-0.345	34.138			
00:00:01	-0.661	34.138			
00:00:01	-0.443	34.138			
00:00:02	-0.714	34.138			
00:00:02	-0.676	34.138			
00:00:02	-0.356	34.138			
00:00:02	-0.731	34.138			
00:00:02	-0.661	34.138			
00:00:02	-0.962	34.138			
00:00:02	-1.261	34.138			
00:00:02	-1.074	34.138			
00:00:02	-1.508	34.138			
00:00:02	-1.302	34.138			
00:00:02	-1.413	34.138			
00:00:02	-1.939	34.138			
00:00:02	-1.699	34.138			
00:00:02	-2.156	34.138			
00:00:02	-2.032	34.138			
00:00:02	-1.978	34.138			
00:00:02	-2.401	34.138			
00:00:02	-2.256	34.138			
00:00:02	-2.922	34.138			
00:00:02	-3.111	34.138			
00:00:02	-2.888	34.138			
00:00:02	-3.279	34.138			
00:00:02	-3.173	34.138			
00:00:02	-3.434	34.138			
00:00:02	-3.391	34.138			
00:00:02	-3.042	34.138			
00:00:02	-3.258	34.138			
00:00:02	-2.722	34.138			
00:00:02	-2.650	34.138			
00:00:02	-2.692	34.138			
00:00:02	-2.280	34.138			
00:00:02	-2.396	34.138			
00:00:02	-1.826	34.138			
00:00:02	-1.589	34.138			
00:00:02	-1.693	34.138			
00:00:02	-1.176	34.138			
00:00:02	-1.246	34.138			
00:00:02	-1.065	34.138			
00:00:02	-0.852	34.138			
00:00:02	-1.000	34.138			
00:00:02	-0.630	34.138			
00:00:02	-1.067	34.138			
00:00:02	-1.216	34.138			
00:00:02	-0.943	34.138			
00:00:02	-1.366	34.138			
00:00:02	-1.156	34.138			
00:00:02	-1.281	34.138			
00:00:02	-1.286	34.138			
00:00:02	-1.082	34.138			
00:00:02	-1.607	34.138			
00:00:02	-1.524	34.138			
00:00:02	-1.813	34.138			
00:00:02	-2.129	34.138			
00:00:02	-1.940	34.138			
00:00:02	-2.218	34.138			
00:00:02	-1.871	34.138			
00:00:02	-1.405	34.138			
00:00:02	-1.023	34.138			
00:00:02	0.209	34.138			
00:00:02	1.271	34.138			
00:00:02	3.034	34.138			
00:00:02	4.906	34.138			
00:00:02	6.429	34.138			
00:00:02	8.790	34.138			
00:00:02	10.394	34.138			
00:00:02	12.069	34.138			
00:00:02	13.630	34.138			
00:00:02	14.230	34.138			
00:00:02	15.363	34.138			
00:00:02	15.670	34.138			
00:00:02	15.646	34.138			
00:00:02	15.980	34.138			
00:00:02	15.459	34.138			
00:00:02	15.294	34.138			
00:00:02	14.730	34.138			
00:00:02	13.730	34.138			
00:00:02	13.230	34.138			
00:00:02	12.202	34.138			
00:00:02	11.711	34.138			
00:00:02	11.022	34.138			
00:00:02	10.036	70.459			
00:00:02	9.533	70.459			
00:00:02	8.491	70.459			
00:00:02	7.841	70.459			
00:00:02	7.323	70.464			
00:00:02	6.059	70.464			
00:00:02	5.526	70.464			
00:00:02	4.294	70.464			
00:00:02	3.267	70.464			
00:00:02	2.602	70.464			
00:00:02	1.512	70.464			
00:00:02	1.037	70.464			
00:00:02	0.160	70.464			
00:00:02	-0.661	70.464			
00:00:02	-0.862	70.464			
00:00:02	-1.494	70.464			
00:00:02	-1.573	70.464			
00:00:02	-1.754	70.464			
00:00:02	-1.997	70.464			
00:00:02	-1.631	70.464			
00:00:02	-1.815	70.464			
00:00:02	-1.536	70.464			
00:00:02	-1.295	70.464			
00:00:02	-1.222	70.464			
00:00:02	-0.647	70.464			
00:00:02	-0.917	70.464			
00:00:02	-0.909	70.464			
00:00:02	-0.542	70.464			
00:00:02	-0.744	70.464			
00:00:02	-0.337	70.464			
00:00:02	-0.561	70.464			
00:00:02	-0.582	70.464			
00:00:02	-0.405	70.464			
00:00:02	-1.066	70.464			
00:00:02	-0.960	70.464			
00:00:02	-1.203	70.464			
00:00:02	-1.728	70.464			
00:00:02	-1.494	70.464			
00:00:02	-1.795	70.464			
00:00:02	-1.596	70.464			
00:00:02	-1.763	70.464			
00:00:02	-2.314	70.464			
00:00:02	-2.367	70.464			
00:00:02	-3.028	70.464			
00:00:02	-3.127	70.464			
00:00:02	-3.110	70.464			
00:00:02	-3.633	70.464			
00:00:02	-3.245	70.464			
00:00:03	-3.634	70.464			
00:00:03	-3.557	70.464			
00:00:03	-3.255	70.464			
00:00:03	-3.530	70.464			
00:00:03	-3.233	70.464			
00:00:03	-3.481	70.464			
00:00:03	-3.554	70.464			
00:00:03	-3.115	70.464			
00:00:03	-3.310	70.464			
00:00:03	-2.746	70.464			
00:00:03	-2.560	70.464			
00:00:03	-2.367	70.464			
00:00:03	-1.851	70.464			
00:00:03	-2.319	70.464			
00:00:03	-2.148	70.464			
00:00:03	-2.162	70.464			
00:00:03	-2.378	70.464			
00:00:03	-1.874	70.464			
00:00:03	-2.031	70.464			
00:00:03	-1.648	70.464			
00:00:03	-1.046	70.464			
00:00:03	-1.312	70.464			
00:00:03	-0.981	70.464			
00:00:03	-1.371	70.464			
00:00:03	-1.507	70.464			
00:00:03	-1.273	70.464			
00:00:03	-1.748	70.464			
00:00:03	-1.459	70.464			
00:00:03	-1.650	70.464			
00:00:03	-1.849	70.464			
00:00:03	-1.699	70.464			
00:00:03	-2.211	70.464			
00:00:03	-2.148	70.464			
00:00:03	-2.344	70.464			
00:00:03	-2.630	70.464			
00:00:03	-2.046	70.464			
00:00:03	-2.206	70.464			
00:00:03	-1.707	70.464			
00:00:03	-1.111	70.464			
00:00:03	-0.529	70.464			
00:00:03	0.831	70.464			
00:00:03	1.655	70.464			
00:00:03	2.992	70.464			
00:00:03	4.602	70.464			
00:00:03	6.175	70.464			
00:00:03	8.682	70.464			
00:00:03	10.353	70.464			
00:00:03	12.007	70.464			
00:00:03	13.619	70.464			
00:00:03	14.208	70.464			
00:00:03	15.344	70.464			
00:00:03	15.801	70.464			
00:00:03	16.024	70.464			
00:00:03	16.500	70.464			
00:00:03	15.932	70.464			
00:00:03	15.882	70.464			
00:00:03	15.322	70.464			
00:00:03	14.263	70.464			
00:00:03	13.702	70.464			
00:00:03	12.377	70.464			
00:00:03	11.587	70.464			
00:00:03	10.846	70.464			
00:00:03	9.730	70.464			
00:00:03	9.216	70.464			
00:00:03	8.033	69.818			
00:00:03	7.408	69.818			
00:00:03	7.101	69.818			
00:00:03	5.946	69.818			
00:00:03	5.203	69.823			
00:00:03	4.078	69.823			
00:00:03	2.960	69.823			
00:00:03	2.323	69.823			
00:00:03	1.169	69.823			
00:00:03	0.640	69.823			
00:00:03	-0.249	69.823			
00:00:03	-1.034	69.823			
00:00:03	-1.087	69.823			
00:00:03	-1.714	69.823			
00:00:03	-1.794	69.823			
00:00:03	-1.925	69.823			
00:00:03	-2.097	69.823			
00:00:03	-1.661	69.823			
00:00:03	-1.730	69.823			
00:00:03	-1.120	69.823			
00:00:03	-0.617	69.823			
00:00:03	-0.751	69.823			
00:00:03	-0.299	69.823			
00:00:03	-0.454	69.823			
00:00:03	-0.258	69.823			
00:00:03	0.196	69.823			
00:00:03	-0.040	69.823			
00:00:03	0.318	69.823			
00:00:03	0.070	69.823			
00:00:03	-0.159	69.823			
00:00:03	-0.015	69.823			
00:00:03	-0.509	69.823			
00:00:03	-0.344	69.823			
00:00:03	-0.741	69.823			
00:00:03	-1.103	69.823			
00:00:03	-0.919	69.823			
00:00:03	-1.779	69.823			
00:00:03	-1.909	69.823			
00:00:03	-2.031	69.823			
00:00:03	-2.476	69.823			
00:00:03	-2.123	69.823			
00:00:03	-2.521	69.823			
00:00:03	-2.570	69.823			
00:00:03	-2.612	69.823			
00:00:03	-3.111	69.823			
00:00:03	-2.727	69.823			
00:00:03	-2.834	69.823			
00:00:03	-3.008	69.823			
00:00:03	-2.866	69.823			
00:00:03	-3.109	69.823			
00:00:03	-2.591	69.823			
00:00:03	-2.704	69.823			
00:00:03	-2.743	69.823			
00:00:03	-2.369	69.823			
00:00:03	-2.657	69.823			
00:00:03	-2.313	69.823			
00:00:03	-2.306	69.823			
00:00:03	-2.489	69.823			
00:00:03	-1.897	69.823			
00:00:03	-2.134	69.823			
00:00:03	-1.700	69.823			
00:00:03	-1.432	69.823			
00:00:03	-1.619	69.823			
00:00:03	-1.209	69.823			
00:00:04	-1.492	69.823			
00:00:04	-1.366	69.823			
00:00:04	-1.276	69.823			
00:00:04	-1.509	69.823			
00:00:04	-1.068	69.823			
00:00:04	-1.574	69.823			
00:00:04	-1.702	69.823			
00:00:04	-1.306	69.823			
00:00:04	-1.610	69.823			
00:00:04	-1.241	69.823			
00:00:04	-1.288	69.823			
00:00:04	-1.394	69.823			
00:00:04	-1.087	69.823			
00:00:04	-1.568	69.823			
00:00:04	-1.280	69.823			
00:00:04	-1.145	69.823			
00:00:04	-1.146	69.823			
00:00:04	-0.180	69.823			
00:00:04	0.297	69.823			
00:00:04	1.391	69.823			
00:00:04	2.844	69.823			
00:00:04	4.190	69.823			
00:00:04	6.302	69.823			
00:00:04	7.692	69.823			
00:00:04	9.480	69.823			
00:00:04	11.455	69.823			
00:00:04	12.622	69.823			
00:00:04	14.134	69.823			
00:00:04	14.823	69.823			
00:00:04	15.128	69.823			
00:00:04	15.618	69.823			
00:00:04	15.152	69.823			
00:00:04	15.202	69.823			
00:00:04	14.744	69.823			
00:00:04	14.038	69.823			
00:00:04	13.624	69.823			
00:00:04	12.424	69.823			
00:00:04	11.735	69.823			
00:00:04	10.903	69.823			
00:00:04	9.903	69.823			
00:00:04	9.585	73.143			
00:00:04	8.586	73.143			
00:00:04	7.986	73.143			
00:00:04	7.078	73.143			
00:00:04	5.733	73.148			
00:00:04	5.114	73.148			
00:00:04	3.983	73.148			
00:00:04	2.998	73.148			
00:00:04	2.350	73.148			
00:00:04	1.143	73.148			
00:00:04	0.745	73.148			
00:00:04	-0.157	73.148			
00:00:04	-1.002	73.148			
00:00:04	-1.119	73.148			
00:00:04	-1.639	73.148			
00:00:04	-1.495	73.148			
00:00:04	-1.607	73.148			
00:00:04	-1.845	73.148			
00:00:04	-1.231	73.148			
00:00:04	-1.195	73.148			
00:00:04	-0.697	73.148			
00:00:04	-0.451	73.148			
00:00:04	-0.550	73.148			
00:00:04	-0.055	73.148			
00:00:04	-0.223	73.148			
00:00:04	-0.033	73.148			
00:00:04	0.212	73.148			
00:00:04	-0.018	73.148			
00:00:04	0.129	73.148			
00:00:04	-0.130	73.148			
00:00:04	-0.010	73.148			
00:00:04	0.230	73.148			
00:00:04	-0.393	73.148			
00:00:04	-0.038	73.148			
00:00:04	-0.022	73.148			
00:00:04	-0.325	73.148			
00:00:04	-0.278	73.148			
00:00:04	-1.134	73.148			
00:00:04	-1.332	73.148			
00:00:04	-1.780	73.148			
00:00:04	-2.390	73.148			
00:00:04	-2.265	73.148			
00:00:04	-2.824	73.148			
00:00:04	-3.015	73.148			
00:00:04	-3.083	73.148			
00:00:04	-3.420	73.148			
00:00:04	-3.122	73.148			
00:00:04	-3.363	73.148			
00:00:04	-3.197	73.148			
00:00:04	-2.834	73.148			
00:00:04	-2.874	73.148			
00:00:04	-2.633	73.148			
00:00:04	-3.024	73.148			
00:00:04	-3.092	73.148			
00:00:04	-2.777	73.148			
00:00:04	-2.986	73.148			
00:00:04	-2.501	73.148			
00:00:04	-2.444	73.148			
00:00:04	-2.428	73.148			
00:00:04	-1.847	73.148			
00:00:04	-2.100	73.148			
00:00:04	-1.581	73.148			
00:00:04	-1.414	73.148			
00:00:04	-1.662	73.148			
00:00:04	-1.272	73.148			
00:00:04	-1.547	73.148			
00:00:04	-1.330	73.148			
00:00:04	-1.154	73.148			
00:00:04	-1.478	73.148			
00:00:04	-1.206	73.148			
00:00:04	-1.403	73.148			
00:00:04	-1.154	73.148			
00:00:04	-0.815	73.148			
00:00:04	-1.173	73.148			
00:00:04	-0.824	73.148			
00:00:04	-1.232	73.148			
00:00:04	-1.682	73.148			
00:00:04	-1.541	73.148			
00:00:04	-2.124	73.148			
00:00:04	-1.863	73.148			
00:00:04	-1.966	73.148			
00:00:04	-2.028	73.148			
00:00:04	-1.057	73.148			
00:00:04	-0.315	73.148			
00:00:04	1.283	73.148			
00:00:04	2.897	73.148			
00:00:04	4.339	73.148			
00:00:04	6.655	73.148			
00:00:05	8.237	73.148			
00:00:05	10.224	73.148			
00:00:05	12.074	73.148			
00:00:05	13.274	73.148			
00:00:05	15.045	73.148			
00:00:05	15.777	73.148			
00:00:05	16.417	73.148			
00:00:05	16.968	73.148			
00:00:05	16.773	73.148			
00:00:05	16.873	73.148			
00:00:05	16.087	73.148			
00:00:05	15.542	73.148			
00:00:05	15.374	73.148			
00:00:05	14.320	73.148			
00:00:05	14.100	73.148			
00:00:05	13.524	73.148			
00:00:05	12.531	72.453			
00:00:05	11.886	72.453			
00:00:05	10.532	72.453			
00:00:05	9.577	72.453			
00:00:05	8.649	72.458			
00:00:05	7.602	72.458			
00:00:05	7.492	72.458			
00:00:05	6.253	72.458			
00:00:05	5.169	72.458			
00:00:05	4.158	72.458			
00:00:05	2.905	72.458			
00:00:05	2.613	72.458			
00:00:05	1.871	72.458			
00:00:05	1.207	72.458			
00:00:05	0.792	72.458			
00:00:05	-0.261	72.458			
00:00:05	-0.492	72.458			
00:00:05	-0.685	72.458			
00:00:05	-1.026	72.458			
00:00:05	-0.834	72.458			
00:00:05	-1.258	72.458			
00:00:05	-0.909	72.458			
00:00:05	-0.798	72.458			
00:00:05	-0.670	72.458			
00:00:05	-0.001	72.458			
00:00:05	-0.318	72.458			
00:00:05	-0.197	72.458			
00:00:05	0.080	72.458			
00:00:05	0.008	72.458			
00:00:05	0.493	72.458			
00:00:05	-0.037	72.458			
00:00:05	-0.101	72.458			
00:00:05	0.089	72.458			
00:00:05	-0.278	72.458			
00:00:05	-0.030	72.458			
00:00:05	-0.331	72.458			
00:00:05	-0.573	72.458			
00:00:05	-0.435	72.458			
00:00:05	-0.794	72.458			
00:00:05	-0.653	72.458			
00:00:05	-1.023	72.458			
00:00:05	-1.308	72.458			
00:00:05	-1.173	72.458			
00:00:05	-1.860	72.458			
00:00:05	-1.912	72.458			
00:00:05	-1.896	72.458			
00:00:05	-2.258	72.458			
00:00:05	-2.026	72.458			
00:00:05	-2.455	72.458			
00:00:05	-2.276	72.458			
00:00:05	-2.243	72.458			
00:00:05	-2.691	72.458			
00:00:05	-2.359	72.458			
00:00:05	-2.464	72.458			
00:00:05	-2.343	72.458			
00:00:05	-2.180	72.458			
00:00:05	-2.772	72.458			
00:00:05	-2.577	72.458			
00:00:05	-2.656	72.458			
00:00:05	-2.610	72.458			
00:00:05	-2.301	72.458			
00:00:05	-2.543	72.458			
00:00:05	-1.862	72.458			
00:00:05	-1.619	72.458			
00:00:05	-1.849	72.458			
00:00:05	-1.401	72.458			
00:00:05	-1.344	72.458			
00:00:05	-0.792	72.458			
00:00:05	-0.520	72.458			
00:00:05	-0.710	72.458			
00:00:05	-0.339	72.458			
00:00:05	-0.620	72.458			
00:00:05	-0.692	72.458			
00:00:05	-0.779	72.458			
00:00:05	-1.115	72.458			
00:00:05	-0.711	72.458			
00:00:05	-0.978	72.458			
00:00:05	-1.171	72.458			
00:00:05	-1.116	72.458			
00:00:05	-1.774	72.458			
00:00:05	-1.471	72.458			
00:00:05	-1.763	72.458			
00:00:05	-2.068	72.458			
00:00:05	-1.348	72.458			
00:00:05	-0.791	72.458			
00:00:05	0.703	72.458			
00:00:05	1.982	72.458			
00:00:05	3.238	72.458			
00:00:05	5.321	72.458			
00:00:05	6.730	72.458			
00:00:05	8.755	72.458			
00:00:05	10.496	72.458			
00:00:05	11.507	72.458			
00:00:05	13.248	72.458			
00:00:05	14.185	72.458			
00:00:05	15.377	72.458			
00:00:05	16.276	72.458			
00:00:05	16.288	72.458			
00:00:05	16.902	72.458			
00:00:05	16.845	72.458			
00:00:05	16.647	72.458			
00:00:05	16.553	72.458			
00:00:05	15.732	72.458			
00:00:05	15.563	72.458			
00:00:05	14.653	72.458			
00:00:05	13.374	72.458			
00:00:05	12.672	72.458			
00:00:05	11.314	72.458			
00:00:05	10.819	71.776			
00:00:05	9.960	71.776			
00:00:05	8.859	71.776			
00:00:05	8.446	71.776			
00:00:06	7.414	71.781			
00:00:06	6.733	71.781			
00:00:06	5.818	71.781			
00:00:06	4.310	71.781			
00:00:06	3.654	71.781			
00:00:06	2.592	71.781			
00:00:06	1.913	71.781			
00:00:06	1.352	71.781			
00:00:06	0.380	71.781			
00:00:06	0.430	71.781			
00:00:06	-0.009	71.781			
00:00:06	-0.316	71.781			
00:00:06	-0.299	71.781			
00:00:06	-0.836	71.781			
00:00:06	-0.399	71.781			
00:00:06	-0.315	71.781			
00:00:06	-0.527	71.781			
00:00:06	-0.259	71.781			
00:00:06	-0.433	71.781			
00:00:06	-0.101	71.781			
00:00:06	-0.001	71.781			
00:00:06	-0.203	71.781			
00:00:06	0.303	71.781			
00:00:06	0.143	71.781			
00:00:06	0.329	71.781			
00:00:06	0.530	71.781			
00:00:06	0.205	71.781			
00:00:06	0.419	71.781			
00:00:06	0.066	71.781			
00:00:06	-0.090	71.781			
00:00:06	-0.071	71.781			
00:00:06	-0.655	71.781			
00:00:06	-0.428	71.781			
00:00:06	-0.785	71.781			
00:00:06	-1.039	71.781			
00:00:06	-0.991	71.781			
00:00:06	-1.583	71.781			
00:00:06	-1.475	71.781			
00:00:06	-1.680	71.781			
00:00:06	-1.912	71.781			
00:00:06	-1.770	71.781			
00:00:06	-2.258	71.781			
00:00:06	-1.948	71.781			
00:00:06	-1.793	71.781			
00:00:06	-2.373	71.781			
00:00:06	-2.371	71.781			
00:00:06	-2.864	71.781			
00:00:06	-2.789	71.781			
00:00:06	-2.401	71.781			
00:00:06	-2.787	71.781			
00:00:06	-2.479	71.781			
00:00:06	-2.694	71.781			
00:00:06	-2.522	71.781			
00:00:06	-1.909	71.781			
00:00:06	-2.041	71.781			
00:00:06	-1.525	71.781			
00:00:06	-1.652	71.781			
00:00:06	-1.538	71.781			
00:00:06	-0.800	71.781			
00:00:06	-0.966	71.781			
00:00:06	-0.692	71.781			
00:00:06	-0.527	71.781			
00:00:06	-0.515	71.781			
00:00:06	-0.008	71.781			
00:00:06	-0.409	71.781			
00:00:06	-0.431	71.781			
00:00:06	-0.445	71.781			
00:00:06	-0.702	71.781			
00:00:06	-0.266	71.781			
00:00:06	-0.654	71.781			
00:00:06	-0.790	71.781			
00:00:06	-0.691	71.781			
00:00:06	-1.027	71.781			
00:00:06	-0.621	71.781			
00:00:06	-0.878	71.781			
00:00:06	-1.171	71.781			
00:00:06	-1.103	71.781			
00:00:06	-1.294	71.781			
00:00:06	-0.552	71.781			
00:00:06	-0.167	71.781			
00:00:06	0.322	71.781			
00:00:06	1.750	71.781			
00:00:06	2.924	71.781			
00:00:06	5.034	71.781			
00:00:06	7.004	71.781			
00:00:06	8.666	71.781			
00:00:06	10.955	71.781			
00:00:06	12.574	71.781			
00:00:06	14.476	71.781			
00:00:06	15.848	71.781			
00:00:06	16.161	71.781			
00:00:06	16.906	71.781			
00:00:06	16.797	71.781			
00:00:06	16.923	71.781			
00:00:06	16.792	71.781			
00:00:06	15.946	71.781			
00:00:06	15.744	71.781			
00:00:06	14.890	71.781			
00:00:06	14.185	71.781			
00:00:06	13.928	71.781			
00:00:06	12.882	71.781			
00:00:06	12.450	71.781			
00:00:06	11.705	71.781			
00:00:06	10.946	71.781			
00:00:06	10.560	72.453			
00:00:06	9.230	72.453			
00:00:06	8.451	72.453			
00:00:06	7.714	72.453			
00:00:06	6.490	72.458			
00:00:06	5.644	72.458			
00:00:06	4.242	72.458			
00:00:06	3.414	72.458			
00:00:06	2.757	72.458			
00:00:06	1.866	72.458			
00:00:06	1.657	72.458			
00:00:06	0.694	72.458			
00:00:06	0.200	72.458			
00:00:06	0.222	72.458			
00:00:06	-0.493	72.458			
00:00:06	-0.111	72.458			
00:00:06	-0.213	72.458			
00:00:06	-0.257	72.458			
00:00:06	0.365	72.458			
00:00:06	0.456	72.458			
00:00:06	0.974	72.458			
00:00:06	0.846	72.458			
00:00:06	0.479	72.458			
00:00:06	0.823	72.458			
00:00:07	0.466	72.458			
00:00:07	0.629	72.458			
00:00:07	0.566	72.458			
00:00:07	0.205	72.458			
00:00:07	0.475	72.458			
00:00:07	0.064	72.458			
00:00:07	0.081	72.458			
00:00:07	0.064	72.458			
00:00:07	-0.443	72.458			
00:00:07	-0.002	72.458			
00:00:07	-0.021	72.458			
00:00:07	-0.002	72.458			
00:00:07	0.162	72.458			
00:00:07	-0.331	72.458			
00:00:07	-0.208	72.458			
00:00:07	-0.407	72.458			
00:00:07	-0.613	72.458			
00:00:07	-0.582	72.458			
00:00:07	-1.088	72.458			
00:00:07	-1.064	72.458			
00:00:07	-1.265	72.458			
00:00:07	-1.727	72.458			
00:00:07	-1.626	72.458			
00:00:07	-2.106	72.458			
00:00:07	-1.862	72.458			
00:00:07	-1.698	72.458			
00:00:07	-1.964	72.458			
00:00:07	-1.782	72.458			
00:00:07	-2.094	72.458			
00:00:07	-1.879	72.458			
00:00:07	-1.354	72.458			
00:00:07	-1.517	72.458			
00:00:07	-1.234	72.458			
00:00:07	-1.410	72.458			
00:00:07	-1.244	72.458			
00:00:07	-0.809	72.458			
00:00:07	-1.013	72.458			
00:00:07	-0.615	72.458			
00:00:07	-0.691	72.458			
00:00:07	-0.749	72.458			
00:00:07	-0.295	72.458			
00:00:07	-0.737	72.458			
00:00:07	-0.591	72.458			
00:00:07	-0.607	72.458			
00:00:07	-0.782	72.458			
00:00:07	-0.276	72.458			
00:00:07	-0.621	72.458			
00:00:07	-0.530	72.458			
00:00:07	-0.348	72.458			
00:00:07	-0.609	72.458			
00:00:07	-0.076	72.458			
00:00:07	-0.456	72.458			
00:00:07	-0.625	72.458			
00:00:07	-0.661	72.458			
00:00:07	-1.177	72.458			
00:00:07	-0.691	72.458			
00:00:07	-0.524	72.458			
00:00:07	-0.128	72.458			
00:00:07	1.068	72.458			
00:00:07	2.025	72.458			
00:00:07	4.055	72.458			
00:00:07	5.843	72.458			
00:00:07	7.354	72.458			
00:00:07	9.455	72.458			
00:00:07	11.025	72.458			
00:00:07	12.889	72.458			
00:00:07	14.313	72.458			
00:00:07	15.022	72.458			
00:00:07	16.120	72.458			
00:00:07	16.422	72.458			
00:00:07	16.849	72.458			
00:00:07	16.938	72.458			
00:00:07	16.204	72.458			
00:00:07	16.162	72.458			
00:00:07	15.438	72.458			
00:00:07	14.714	72.458			
00:00:07	14.128	72.458			
00:00:07	12.831	72.458			
00:00:07	12.209	72.458			
00:00:07	11.293	72.458			
00:00:07	10.627	73.143			
00:00:07	10.564	73.143			
00:00:07	9.482	73.143			
00:00:07	8.909	73.143			
00:00:07	8.104	73.148			
00:00:07	6.916	73.148			
00:00:07	6.321	73.148			
00:00:07	4.924	73.148			
00:00:07	4.087	73.148			
00:00:07	3.350	73.148			
00:00:07	2.344	73.148			
00:00:07	2.005	73.148			
00:00:07	1.062	73.148			
00:00:07	0.599	73.148			
00:00:07	0.423	73.148			
00:00:07	-0.079	73.148			
00:00:07	0.336	73.148			
00:00:07	0.221	73.148			
00:00:07	0.260	73.148			
00:00:07	0.593	73.148			
00:00:07	0.599	73.148			
00:00:07	1.199	73.148			
00:00:07	1.260	73.148			
00:00:07	1.191	73.148			
00:00:07	1.599	73.148			
00:00:07	1.255	73.148			
00:00:07	1.495	73.148			
00:00:07	1.257	73.148			
00:00:07	0.779	73.148			
00:00:07	0.987	73.148			
00:00:07	0.613	73.148			
00:00:07	0.546	73.148			
00:00:07	0.336	73.148			
00:00:07	-0.245	73.148			
00:00:07	-0.027	73.148			
00:00:07	-0.173	73.148			
00:00:07	-0.076	73.148			
00:00:07	-0.164	73.148			
00:00:07	-0.734	73.148			
00:00:07	-0.429	73.148			
00:00:07	-0.434	73.148			
00:00:07	-0.584	73.148			
00:00:07	-0.556	73.148			
00:00:07	-1.287	73.148			
00:00:07	-1.281	73.148			
00:00:07	-1.320	73.148			
00:00:07	-1.330	73.148			
00:00:07	-1.042	73.148			
00:00:08	-1.657	73.148			
00:00:08	-1.559	73.148			
00:00:08	-1.516	73.148			
00:00:08	-1.665	73.148			
00:00:08	-1.126	73.148			
00:00:08	-1.400	73.148			
00:00:08	-1.244	73.148			
00:00:08	-1.109	73.148			
00:00:08	-1.405	73.148			
00:00:08	-0.876	73.148			
00:00:08	-1.097	73.148			
00:00:08	-1.105	73.148			
00:00:08	-0.810	73.148			
00:00:08	-1.039	73.148			
00:00:08	-0.446	73.148			
00:00:08	-0.548	73.148			
00:00:08	-0.585	73.148			
00:00:08	-0.310	73.148			
00:00:08	-0.645	73.148			
00:00:08	-0.246	73.148			
00:00:08	-0.330	73.148			
00:00:08	-0.648	73.148			
00:00:08	-0.451	73.148			
00:00:08	-0.877	73.148			
00:00:08	-0.602	73.148			
00:00:08	-0.490	73.148			
00:00:08	-0.733	73.148			
00:00:08	-0.353	73.148			
00:00:08	-0.619	73.148			
00:00:08	-0.387	73.148			
00:00:08	-0.145	73.148			
00:00:08	-0.644	73.148			
00:00:08	-0.118	73.148			
00:00:08	0.151	73.148			
00:00:08	1.046	73.148			
00:00:08	2.439	73.148			
00:00:08	3.325	73.148			
00:00:08	5.119	73.148			
00:00:08	6.588	73.148			
00:00:08	8.367	73.148			
00:00:08	10.722	73.148			
00:00:08	12.108	73.148			
00:00:08	13.775	73.148			
00:00:08	14.952	73.148			
00:00:08	15.846	73.148			
00:00:08	17.033	73.148			
00:00:08	17.088	73.148			
00:00:08	17.328	73.148			
00:00:08	17.248	73.148			
00:00:08	16.676	73.148			
00:00:08	16.868	73.148			
00:00:08	16.081	73.148			
00:00:08	15.479	73.148			
00:00:08	14.928	73.148			
00:00:08	13.773	73.148			
00:00:08	13.465	73.148			
00:00:08	12.416	72.453			
00:00:08	11.481	72.453			
00:00:08	10.897	72.453			
00:00:08	9.861	72.453			
00:00:08	9.405	72.458			
00:00:08	8.438	72.458			
00:00:08	7.304	72.458			
00:00:08	6.611	72.458			
00:00:08	5.490	72.458			
00:00:08	4.963	72.458			
00:00:08	4.085	72.458			
00:00:08	3.052	72.458			
00:00:08	2.641	72.458			
00:00:08	1.639	72.458			
00:00:08	1.300	72.458			
00:00:08	1.182	72.458			
00:00:08	0.601	72.458			
00:00:08	0.693	72.458			
00:00:08	0.465	72.458			
00:00:08	0.775	72.458			
00:00:08	1.312	72.458			
00:00:08	1.001	72.458			
00:00:08	1.354	72.458			
00:00:08	1.312	72.458			
00:00:08	1.469	72.458			
00:00:08	2.178	72.458			
00:00:08	1.844	72.458			
00:00:08	1.867	72.458			
00:00:08	1.470	72.458			
00:00:08	1.096	72.458			
00:00:08	1.303	72.458			
00:00:08	0.690	72.458			
00:00:08	0.581	72.458			
00:00:08	0.297	72.458			
00:00:08	-0.181	72.458			
00:00:08	0.071	72.458			
00:00:08	-0.287	72.458			
00:00:08	-0.218	72.458			
00:00:08	-0.154	72.458			
00:00:08	-0.597	72.458			
00:00:08	-0.339	72.458			
00:00:08	-0.739	72.458			
00:00:08	-1.079	72.458			
00:00:08	-1.137	72.458			
00:00:08	-1.710	72.458			
00:00:08	-1.419	72.458			
00:00:08	-1.568	72.458			
00:00:08	-1.456	72.458			
00:00:08	-1.139	72.458			
00:00:08	-1.455	72.458			
00:00:08	-1.082	72.458			
00:00:08	-1.032	72.458			
00:00:08	-1.182	72.458			
00:00:08	-0.758	72.458			
00:00:08	-1.096	72.458			
00:00:08	-0.852	72.458			
00:00:08	-0.646	72.458			
00:00:08	-0.836	72.458			
00:00:08	-0.472	72.458			
00:00:08	-1.001	72.458			
00:00:08	-1.122	72.458			
00:00:08	-0.714	72.458			
00:00:08	-0.703	72.458			
00:00:08	0.032	72.458			
00:00:08	-0.245	72.458			
00:00:08	-0.247	72.458			
00:00:08	0.019	72.458			
00:00:08	-0.347	72.458			
00:00:08	0.197	72.458			
00:00:08	0.014	72.458			
00:00:08	-0.432	72.458			
00:00:08	-0.219	72.458			
00:00:09	-0.330	72.458			
00:00:09	-0.015	72.458			
00:00:09	-0.171	72.458			
00:00:09	-0.512	72.458			
00:00:09	-0.251	72.458			
00:00:09	-0.547	72.458			
00:00:09	-0.491	72.458			
00:00:09	-0.422	72.458			
00:00:09	-0.912	72.458			
00:00:09	-0.865	72.458			
00:00:09	-1.215	72.458			
00:00:09	-1.013	72.458			
00:00:09	-0.281	72.458			
00:00:09	0.097	72.458			
00:00:09	1.480	72.458			
00:00:09	2.493	72.458			
00:00:09	3.918	72.458			
00:00:09	5.976	72.458			
00:00:09	7.349	72.458			
00:00:09	9.598	72.458			
00:00:09	11.489	72.458			
00:00:09	13.014	72.458			
00:00:09	14.847	72.458			
00:00:09	15.858	72.458			
00:00:09	16.974	72.458			
00:00:09	17.804	72.458			
00:00:09	18.121	72.458			
00:00:09	18.823	72.458			
00:00:09	18.352	72.458			
00:00:09	17.777	72.458			
00:00:09	16.997	72.458			
00:00:09	15.878	72.458			
00:00:09	15.647	72.458			
00:00:09	14.500	72.458			
00:00:09	13.358	72.458			
00:00:09	12.668	72.458			
00:00:09	11.340	71.776			
00:00:09	11.125	71.776			
00:00:09	10.599	71.776			
00:00:09	9.853	71.776			
00:00:09	9.333	71.781			
00:00:09	8.182	71.781			
00:00:09	7.801	71.781			
00:00:09	6.971	71.781			
00:00:09	6.032	71.781			
00:00:09	5.494	71.781			
00:00:09	4.236	71.781			
00:00:09	3.371	71.781			
00:00:09	2.708	71.781			
00:00:09	1.757	71.781			
00:00:09	1.517	71.781			
00:00:09	0.572	71.781			
00:00:09	0.383	71.781			
00:00:09	0.675	71.781			
00:00:09	0.550	71.781			
00:00:09	1.190	71.781			
00:00:09	1.107	71.781			
00:00:09	1.234	71.781			
00:00:09	1.709	71.781			
00:00:09	1.660	71.781			
00:00:09	2.107	71.781			
00:00:09	1.749	71.781			
00:00:09	1.657	71.781			
00:00:09	2.082	71.781			
00:00:09	1.636	71.781			
00:00:09	1.678	71.781			
00:00:09	1.423	71.781			
00:00:09	1.096	71.781			
00:00:09	1.400	71.781			
00:00:09	1.036	71.781			
00:00:09	1.105	71.781			
00:00:09	0.818	71.781			
00:00:09	-0.141	71.781			
00:00:09	0.061	71.781			
00:00:09	-0.374	71.781			
00:00:09	-0.675	71.781			
00:00:09	-0.660	71.781			
00:00:09	-1.169	71.781			
00:00:09	-0.750	71.781			
00:00:09	-0.811	71.781			
00:00:09	-0.829	71.781			
00:00:09	-0.667	71.781			
00:00:09	-1.280	71.781			
00:00:09	-1.018	71.781			
00:00:09	-1.033	71.781			
00:00:09	-1.276	71.781			
00:00:09	-1.208	71.781			
00:00:09	-1.768	71.781			
00:00:09	-1.487	71.781			
00:00:09	-1.474	71.781			
00:00:09	-1.627	71.781			
00:00:09	-1.007	71.781			
00:00:09	-1.369	71.781			
00:00:09	-1.155	71.781			
00:00:09	-0.767	71.781			
00:00:09	-0.717	71.781			
00:00:09	-0.105	71.781			
00:00:09	-0.370	71.781			
00:00:09	-0.325	71.781			
00:00:09	-0.069	71.781			
00:00:09	-0.306	71.781			
00:00:09	0.228	71.781			
00:00:09	0.082	71.781			
00:00:09	0.110	71.781			
00:00:09	0.548	71.781			
00:00:09	0.196	71.781			
00:00:09	0.514	71.781			
00:00:09	0.415	71.781			
00:00:09	0.147	71.781			
00:00:09	0.535	71.781			
00:00:09	-0.038	71.781			
00:00:09	0.026	71.781			
00:00:09	-0.166	71.781			
00:00:09	-0.838	71.781			
00:00:09	-0.607	71.781			
00:00:09	-0.828	71.781			
00:00:09	-0.819	71.781			
00:00:09	-0.831	71.781			
00:00:09	-1.217	71.781			
00:00:09	-0.830	71.781			
00:00:09	-0.916	71.781			
00:00:09	-0.596	71.781			
00:00:09	0.136	71.781			
00:00:09	0.132	71.781			
00:00:09	1.029	71.781			
00:00:09	1.724	71.781			
00:00:09	2.918	71.781			
00:00:09	5.068	71.781			
00:00:10	6.598	71.781			
00:00:10	8.818	71.781			
00:00:10	10.561	71.781			
00:00:10	12.101	71.781			
00:00:10	14.168	71.781			
00:00:10	15.414	71.781			
00:00:10	16.872	71.781			
00:00:10	17.635	71.781			
00:00:10	17.515	71.781			
00:00:10	18.025	71.781			
00:00:10	17.844	71.781			
00:00:10	17.852	71.781			
00:00:10	17.550	71.781			
00:00:10	16.337	71.781			
00:00:10	15.603	71.781			
00:00:10	14.546	71.781			
00:00:10	13.742	71.781			
00:00:10	13.180	71.781			
00:00:10	11.813	71.781			
00:00:10	11.256	71.781			
00:00:10	10.254	69.818			
00:00:10	9.462	69.818			
00:00:10	9.415	69.818			
00:00:10	8.317	69.818			
00:00:10	7.638	69.823			
00:00:10	6.714	69.823			
00:00:10	5.527	69.823			
00:00:10	5.089	69.823			
00:00:10	4.044	69.823			
00:00:10	3.396	69.823			
00:00:10	2.634	69.823			
00:00:10	1.712	69.823			
00:00:10	1.582	69.823			
00:00:10	1.150	69.823			
00:00:10	0.929	69.823			
00:00:10	0.771	69.823			
00:00:10	0.247	69.823			
00:00:10	0.660	69.823			
00:00:10	0.577	69.823			
00:00:10	0.720	69.823			
00:00:10	1.256	69.823			
00:00:10	1.079	69.823			
00:00:10	1.661	69.823			
00:00:10	1.815	69.823			
00:00:10	1.536	69.823			
00:00:10	1.980	69.823			
00:00:10	1.645	69.823			
00:00:10	1.798	69.823			
00:00:10	1.654	69.823			
00:00:10	1.129	69.823			
00:00:10	1.406	69.823			
00:00:10	0.918	69.823			
00:00:10	0.817	69.823			
00:00:10	0.666	69.823			
00:00:10	0.118	69.823			
00:00:10	0.556	69.823			
00:00:10	0.242	69.823			
00:00:10	0.170	69.823			
00:00:10	-0.148	69.823			
00:00:10	-0.739	69.823			
00:00:10	-0.358	69.823			
00:00:10	-0.444	69.823			
00:00:10	-0.741	69.823			
00:00:10	-0.613	69.823			
00:00:10	-1.284	69.823			
00:00:10	-1.292	69.823			
00:00:10	-1.389	69.823			
00:00:10	-1.589	69.823			
00:00:10	-1.238	69.823			
00:00:10	-1.867	69.823			
00:00:10	-1.703	69.823			
00:00:10	-1.446	69.823			
00:00:10	-1.525	69.823			
00:00:10	-1.058	69.823			
00:00:10	-1.226	69.823			
00:00:10	-1.088	69.823			
00:00:10	-0.789	69.823			
00:00:10	-0.974	69.823			
00:00:10	-0.394	69.823			
00:00:10	-0.569	69.823			
00:00:10	-0.805	69.823			
00:00:10	-0.365	69.823			
00:00:10	-0.511	69.823			
00:00:10	0.133	69.823			
00:00:10	0.196	69.823			
00:00:10	0.200	69.823			
00:00:10	0.988	69.823			
00:00:10	0.832	69.823			
00:00:10	1.135	69.823			
00:00:10	0.975	69.823			
00:00:10	0.353	69.823			
00:00:10	0.613	69.823			
00:00:10	0.114	69.823			
00:00:10	0.141	69.823			
00:00:10	0.268	69.823			
00:00:10	-0.069	69.823			
00:00:10	0.178	69.823			
00:00:10	-0.434	69.823			
00:00:10	-0.362	69.823			
00:00:10	-0.245	69.823			
00:00:10	-0.686	69.823			
00:00:10	-0.381	69.823			
00:00:10	-0.738	69.823			
00:00:10	-0.856	69.823			
00:00:10	-0.345	69.823			
00:00:10	-0.132	69.823			
00:00:10	0.491	69.823			
00:00:10	0.849	69.823			
00:00:10	1.709	69.823			
00:00:10	3.684	69.823			
00:00:10	5.203	69.823			
00:00:10	7.469	69.823			
00:00:10	9.465	69.823			
00:00:10	10.998	69.823			
00:00:10	13.074	69.823			
00:00:10	14.347	69.823			
00:00:10	15.615	69.823			
00:00:10	16.413	69.823			
00:00:10	16.557	69.823			
00:00:10	17.218	69.823			
00:00:10	16.983	69.823			
00:00:10	17.005	69.823			
00:00:10	16.947	69.823			
00:00:10	15.844	69.823			
00:00:10	15.363	69.823			
00:00:10	14.465	69.823			
00:00:10	13.644	69.823			
00:00:10	13.118	69.823			
00:00:11	11.937	69.818			
00:00:11	11.372	69.818			
00:00:11	10.633	69.818			
00:00:11	9.693	69.818			
00:00:11	9.324	69.823			
00:00:11	8.052	69.823			
00:00:11	7.320	69.823			
00:00:11	6.557	69.823			
00:00:11	5.296	69.823			
00:00:11	4.817	69.823			
00:00:11	3.462	69.823			
00:00:11	2.522	69.823			
00:00:11	2.021	69.823			
00:00:11	1.305	69.823			
00:00:11	1.343	69.823			
00:00:11	0.863	69.823			
00:00:11	0.652	69.823			
00:00:11	0.859	69.823			
00:00:11	0.547	69.823			
00:00:11	0.968	69.823			
00:00:11	1.021	69.823			
00:00:11	0.942	69.823			
00:00:11	1.180	69.823			
00:00:11	0.714	69.823			
00:00:11	1.251	69.823			
00:00:11	1.443	69.823			
00:00:11	1.378	69.823			
00:00:11	1.679	69.823			
00:00:11	1.347	69.823			
00:00:11	1.624	69.823			
00:00:11	1.709	69.823			
00:00:11	1.316	69.823			
00:00:11	1.492	69.823			
00:00:11	0.933	69.823			
00:00:11	0.923	69.823			
00:00:11	1.157	69.823			
00:00:11	0.789	69.823			
00:00:11	1.018	69.823			
00:00:11	0.597	69.823			
00:00:11	0.284	69.823			
00:00:11	0.245	69.823			
00:00:11	-0.242	69.823			
00:00:11	-0.022	69.823			
00:00:11	-0.228	69.823			
00:00:11	-0.608	69.823			
00:00:11	-0.476	69.823			
00:00:11	-0.760	69.823			
00:00:11	-0.527	69.823			
00:00:11	-0.681	69.823			
00:00:11	-1.212	69.823			
00:00:11	-0.962	69.823			
00:00:11	-1.220	69.823			
00:00:11	-0.928	69.823			
00:00:11	-0.777	69.823			
00:00:11	-1.165	69.823			
00:00:11	-0.927	69.823			
00:00:11	-1.406	69.823			
00:00:11	-1.472	69.823			
00:00:11	-1.161	69.823			
00:00:11	-1.433	69.823			
00:00:11	-0.976	69.823			
00:00:11	-1.069	69.823			
00:00:11	-0.876	69.823			
00:00:11	-0.336	69.823			
00:00:11	-0.511	69.823			
00:00:11	-0.036	69.823			
00:00:11	0.010	69.823			
00:00:11	0.107	69.823			
00:00:11	0.640	69.823			
00:00:11	0.502	69.823			
00:00:11	0.653	69.823			
00:00:11	0.474	69.823			
00:00:11	0.319	69.823			
00:00:11	0.759	69.823			
00:00:11	0.461	69.823			
00:00:11	0.432	69.823			
00:00:11	0.288	69.823			
00:00:11	-0.266	69.823			
00:00:11	0.053	69.823			
00:00:11	-0.175	69.823			
00:00:11	-0.296	69.823			
00:00:11	-0.250	69.823			
00:00:11	-0.666	69.823			
00:00:11	-0.122	69.823			
00:00:11	0.229	69.823			
00:00:11	0.557	69.823			
00:00:11	1.447	69.823			
00:00:11	1.872	69.823			
00:00:11	3.368	69.823			
00:00:11	5.017	69.823			
00:00:11	6.543	69.823			
00:00:11	8.790	69.823			
00:00:11	10.072	69.823			
00:00:11	11.695	69.823			
00:00:11	12.976	69.823			
00:00:11	13.973	69.823			
00:00:11	15.408	69.823			
00:00:11	15.797	69.823			
00:00:11	16.167	69.823			
00:00:11	16.384	69.823			
00:00:11	15.998	69.823			
00:00:11	16.183	69.823			
00:00:11	15.480	69.823			
00:00:11	14.738	69.823			
00:00:11	14.305	69.823			
00:00:11	13.189	69.823			
00:00:11	13.010	69.823			
00:00:11	12.269	69.823			
00:00:11	11.325	71.111			
00:00:11	10.848	71.111			
00:00:11	9.523	71.111			
00:00:11	8.843	71.111			
00:00:11	8.110	71.116			
00:00:11	7.116	71.116			
00:00:11	6.691	71.116			
00:00:11	5.257	71.116			
00:00:11	4.697	71.116			
00:00:11	4.144	71.116			
00:00:11	3.045	71.116			
00:00:11	2.551	71.116			
00:00:11	1.505	71.116			
00:00:11	1.151	71.116			
00:00:11	1.020	71.116			
00:00:11	0.558	71.116			
00:00:11	0.959	71.116			
00:00:11	0.491	71.116			
00:00:11	0.177	71.116			
00:00:11	0.431	71.116			
00:00:12	0.277	71.116			
00:00:12	0.674	71.116			
00:00:12	0.844	71.116			
00:00:12	0.721	71.116			
00:00:12	1.051	71.116			
00:00:12	0.711	71.116			
00:00:12	1.259	71.116			
00:00:12	1.605	71.116			
00:00:12	1.431	71.116			
00:00:12	1.684	71.116			
00:00:12	1.164	71.116			
00:00:12	1.108	71.116			
00:00:12	1.235	71.116			
00:00:12	0.524	71.116			
00:00:12	0.590	71.116			
00:00:12	0.048	71.116			
00:00:12	-0.140	71.116			
00:00:12	-0.034	71.116			
00:00:12	-0.533	71.116			
00:00:12	-0.297	71.116			
00:00:12	-0.591	71.116			
00:00:12	-0.839	71.116			
00:00:12	-0.638	71.116			
00:00:12	-0.918	71.116			
00:00:12	-0.262	71.116			
00:00:12	-0.300	71.116			
00:00:12	-0.702	71.116			
00:00:12	-0.551	71.116			
00:00:12	-1.168	71.116			
00:00:12	-1.105	71.116			
00:00:12	-1.044	71.116			
00:00:12	-1.287	71.116			
00:00:12	-0.868	71.116			
00:00:12	-1.197	71.116			
00:00:12	-0.972	71.116			
00:00:12	-0.733	71.116			
00:00:12	-1.049	71.116			
00:00:12	-0.749	71.116			
00:00:12	-1.193	71.116			
00:00:12	-1.202	71.116			
00:00:12	-0.700	71.116			
00:00:12	-0.905	71.116			
00:00:12	-0.342	71.116			
00:00:12	-0.325	71.116			
00:00:12	-0.450	71.116			
00:00:12	0.086	71.116			
00:00:12	0.054	71.116			
00:00:12	0.384	71.116			
00:00:12	0.501	71.116			
00:00:12	0.089	71.116			
00:00:12	0.212	71.116			
00:00:12	-0.280	71.116			
00:00:12	-0.041	71.116			
00:00:12	0.031	71.116			
00:00:12	-0.264	71.116			
00:00:12	0.033	71.116			
00:00:12	-0.225	71.116			
00:00:12	-0.030	71.116			
00:00:12	0.296	71.116			
00:00:12	0.065	71.116			
00:00:12	0.361	71.116			
00:00:12	-0.063	71.116			
00:00:12	-0.204	71.116			
00:00:12	0.314	71.116			
00:00:12	0.155	71.116			
00:00:12	0.900	71.116			
00:00:12	1.328	71.116			
00:00:12	2.088	71.116			
00:00:12	3.955	71.116			
00:00:12	5.531	71.116			
00:00:12	7.978	71.116			
00:00:12	9.900	71.116			
00:00:12	11.256	71.116			
00:00:12	13.097	71.116			
00:00:12	14.249	71.116			
00:00:12	15.725	71.116			
00:00:12	16.623	71.116			
00:00:12	16.585	71.116			
00:00:12	17.061	71.116			
00:00:12	16.859	71.116			
00:00:12	16.628	71.116			
00:00:12	16.402	71.116			
00:00:12	15.617	71.116			
00:00:12	15.606	71.116			
00:00:12	14.719	71.116			
00:00:12	13.888	71.116			
00:00:12	13.491	71.116			
00:00:12	12.527	71.116			
00:00:12	12.273	71.776			
00:00:12	11.545	71.776			
00:00:12	10.408	71.776			
00:00:12	9.736	71.776			
00:00:12	8.693	71.781			
00:00:12	8.115	71.781			
00:00:12	7.396	71.781			
00:00:12	6.137	71.781			
00:00:12	5.780	71.781			
00:00:12	4.632	71.781			
00:00:12	4.023	71.781			
00:00:12	3.581	71.781			
00:00:12	2.446	71.781			
00:00:12	2.153	71.781			
00:00:12	1.444	71.781			
00:00:12	1.126	71.781			
00:00:12	1.261	71.781			
00:00:12	0.785	71.781			
00:00:12	0.906	71.781			
00:00:12	0.545	71.781			
00:00:12	0.485	71.781			
00:00:12	1.071	71.781			
00:00:12	0.910	71.781			
00:00:12	1.203	71.781			
00:00:12	1.121	71.781			
00:00:12	1.016	71.781			
00:00:12	1.594	71.781			
00:00:12	1.289	71.781			
00:00:12	1.320	71.781			
00:00:12	1.426	71.781			
00:00:12	0.907	71.781			
00:00:12	1.151	71.781			
00:00:12	0.877	71.781			
00:00:12	0.912	71.781			
00:00:12	0.956	71.781			
00:00:12	0.355	71.781			
00:00:12	0.638	71.781			
00:00:12	0.312	71.781			
00:00:12	0.283	71.781			
00:00:12	0.383	71.781			
00:00:13	-0.455	71.781			
00:00:13	-0.435	71.781			
00:00:13	-0.803	71.781			
00:00:13	-1.171	71.781			
00:00:13	-0.721	71.781			
00:00:13	-1.079	71.781			
00:00:13	-0.986	71.781			
00:00:13	-1.146	71.781			
00:00:13	-1.537	71.781			
00:00:13	-1.169	71.781			
00:00:13	-1.317	71.781			
00:00:13	-0.975	71.781			
00:00:13	-0.714	71.781			
00:00:13	-1.060	71.781			
00:00:13	-0.572	71.781			
00:00:13	-0.657	71.781			
00:00:13	-0.394	71.781			
00:00:13	-0.003	71.781			
00:00:13	-0.577	71.781			
00:00:13	-0.420	71.781			
00:00:13	-0.579	71.781			
00:00:13	-0.239	71.781			
00:00:13	0.389	71.781			
00:00:13	0.052	71.781			
00:00:13	0.471	71.781			
00:00:13	0.426	71.781			
00:00:13	0.321	71.781			
00:00:13	0.763	71.781			
00:00:13	0.353	71.781			
00:00:13	0.692	71.781			
00:00:13	0.610	71.781			
00:00:13	-0.027	71.781			
00:00:13	0.093	71.781			
00:00:13	-0.213	71.781			
00:00:13	-0.074	71.781			
00:00:13	0.086	71.781			
00:00:13	-0.458	71.781			
00:00:13	-0.320	71.781			
00:00:13	-0.497	71.781			
00:00:13	-0.285	71.781			
00:00:13	0.157	71.781			
00:00:13	-0.330	71.781			
00:00:13	-0.161	71.781			
00:00:13	-0.507	71.781			
00:00:13	-0.693	71.781			
00:00:13	-0.003	71.781			
00:00:13	0.124	71.781			
00:00:13	1.162	71.781			
00:00:13	2.091	71.781			
00:00:13	2.975	71.781			
00:00:13	4.906	71.781			
00:00:13	6.491	71.781			
00:00:13	8.698	71.781			
00:00:13	10.768	71.781			
00:00:13	12.150	71.781			
00:00:13	14.072	71.781			
00:00:13	15.137	71.781			
00:00:13	16.350	71.781			
00:00:13	17.245	71.781			
00:00:13	17.113	71.781			
00:00:13	17.543	71.781			
00:00:13	17.176	71.781			
00:00:13	16.737	71.781			
00:00:13	16.632	71.781			
00:00:13	15.878	71.781			
00:00:13	15.358	71.781			
00:00:13	14.254	71.781			
00:00:13	13.131	71.781			
00:00:13	12.780	69.818			
00:00:13	11.786	69.818			
00:00:13	11.388	69.818			
00:00:13	10.661	69.818			
00:00:13	9.429	69.823			
00:00:13	8.848	69.823			
00:00:13	7.756	69.823			
00:00:13	7.190	69.823			
00:00:13	6.610	69.823			
00:00:13	5.482	69.823			
00:00:13	5.004	69.823			
00:00:13	3.992	69.823			
00:00:13	3.407	69.823			
00:00:13	3.005	69.823			
00:00:13	1.740	69.823			
00:00:13	1.457	69.823			
00:00:13	0.838	69.823			
00:00:13	0.647	69.823			
00:00:13	0.815	69.823			
00:00:13	0.489	69.823			
00:00:13	0.901	69.823			
00:00:13	0.879	69.823			
00:00:13	0.814	69.823			
00:00:13	1.329	69.823			
00:00:13	1.223	69.823			
00:00:13	1.566	69.823			
00:00:13	1.669	69.823			
00:00:13	1.433	69.823			
00:00:13	1.737	69.823			
00:00:13	1.384	69.823			
00:00:13	1.577	69.823			
00:00:13	1.808	69.823			
00:00:13	1.342	69.823			
00:00:13	1.403	69.823			
00:00:13	0.838	69.823			
00:00:13	0.827	69.823			
00:00:13	1.256	69.823			
00:00:13	0.909	69.823			
00:00:13	1.115	69.823			
00:00:13	0.628	69.823			
00:00:13	0.182	69.823			
00:00:13	0.235	69.823			
00:00:13	-0.399	69.823			
00:00:13	-0.249	69.823			
00:00:13	-0.594	69.823			
00:00:13	-1.183	69.823			
00:00:13	-1.086	69.823			
00:00:13	-1.481	69.823			
00:00:13	-1.110	69.823			
00:00:13	-0.838	69.823			
00:00:13	-1.133	69.823			
00:00:13	-0.820	69.823			
00:00:13	-1.088	69.823			
00:00:13	-0.934	69.823			
00:00:13	-0.677	69.823			
00:00:13	-0.925	69.823			
00:00:13	-0.523	69.823			
00:00:13	-1.027	69.823			
00:00:13	-1.130	69.823			
00:00:13	-0.684	69.823			
00:00:14	-0.896	69.823			
00:00:14	-0.323	69.823			
00:00:14	-0.432	69.823			
00:00:14	-0.750	69.823			
00:00:14	-0.332	69.823			
00:00:14	-0.482	69.823			
00:00:14	0.027	69.823			
00:00:14	0.299	69.823			
00:00:14	0.180	69.823			
00:00:14	0.596	69.823			
00:00:14	0.261	69.823			
00:00:14	0.633	69.823			
00:00:14	0.883	69.823			
00:00:14	0.589	69.823			
00:00:14	1.107	69.823			
00:00:14	0.829	69.823			
00:00:14	0.891	69.823			
00:00:14	1.021	69.823			
00:00:14	0.607	69.823			
00:00:14	0.850	69.823			
00:00:14	0.407	69.823			
00:00:14	0.255	69.823			
00:00:14	0.310	69.823			
00:00:14	-0.221	69.823			
00:00:14	-0.083	69.823			
00:00:14	-0.238	69.823			
00:00:14	-0.462	69.823			
00:00:14	-0.255	69.823			
00:00:14	-0.329	69.823			
00:00:14	0.513	69.823			
00:00:14	1.431	69.823			
00:00:14	2.431	69.823			
00:00:14	4.364	69.823			
00:00:14	5.578	69.823			
00:00:14	7.381	69.823			
00:00:14	9.420	69.823			
00:00:14	10.789	69.823			
00:00:14	12.705	69.823			
00:00:14	13.827	69.823			
00:00:14	14.846	69.823			
00:00:14	15.859	69.823			
00:00:14	15.986	69.823			
00:00:14	16.819	69.823			
00:00:14	16.941	69.823			
00:00:14	16.764	69.823			
00:00:14	16.663	69.823			
00:00:14	15.706	69.823			
00:00:14	15.179	69.823			
00:00:14	14.535	69.823			
00:00:14	13.654	69.823			
00:00:14	13.187	69.823			
00:00:14	11.855	69.823			
00:00:14	11.063	69.189			
00:00:14	10.247	69.189			
00:00:14	9.347	69.189			
00:00:14	9.007	69.189			
00:00:14	8.010	69.194			
00:00:14	7.356	69.194			
00:00:14	6.672	69.194			
00:00:14	5.486	69.194			
00:00:14	5.057	69.194			
00:00:14	3.857	69.194			
00:00:14	2.931	69.194			
00:00:14	2.289	69.194			
00:00:14	1.234	69.194			
00:00:14	1.020	69.194			
00:00:14	0.460	69.194			
00:00:14	0.084	69.194			
00:00:14	0.351	69.194			
00:00:14	-0.210	69.194			
00:00:14	0.044	69.194			
00:00:14	0.243	69.194			
00:00:14	0.443	69.194			
00:00:14	1.330	69.194			
00:00:14	1.347	69.194			
00:00:14	1.694	69.194			
00:00:14	1.668	69.194			
00:00:14	1.260	69.194			
00:00:14	1.757	69.194			
00:00:14	1.450	69.194			
00:00:14	1.433	69.194			
00:00:14	1.643	69.194			
00:00:14	1.132	69.194			
00:00:14	1.309	69.194			
00:00:14	1.135	69.194			
00:00:14	1.009	69.194			
00:00:14	1.006	69.194			
00:00:14	0.475	69.194			
00:00:14	0.492	69.194			
00:00:14	0.239	69.194			
00:00:14	0.038	69.194			
00:00:14	0.418	69.194			
00:00:14	0.024	69.194			
00:00:14	0.255	69.194			
00:00:14	0.205	69.194			
00:00:14	-0.184	69.194			
00:00:14	0.094	69.194			
00:00:14	-0.273	69.194			
00:00:14	-0.268	69.194			
00:00:14	-0.493	69.194			
00:00:14	-1.112	69.194			
00:00:14	-0.706	69.194			
00:00:14	-0.977	69.194			
00:00:14	-0.953	69.194			
00:00:14	-0.706	69.194			
00:00:14	-1.221	69.194			
00:00:14	-0.985	69.194			
00:00:14	-0.924	69.194			
00:00:14	-0.727	69.194			
00:00:14	-0.127	69.194			
00:00:14	-0.399	69.194			
00:00:14	-0.086	69.194			
00:00:14	-0.118	69.194			
00:00:14	-0.102	69.194			
00:00:14	0.371	69.194			
00:00:14	0.054	69.194			
00:00:14	0.121	69.194			
00:00:14	-0.006	69.194			
00:00:14	-0.236	69.194			
00:00:14	0.220	69.194			
00:00:14	0.178	69.194			
00:00:14	0.687	69.194			
00:00:14	1.008	69.194			
00:00:14	0.526	69.194			
00:00:14	0.727	69.194			
00:00:14	0.358	69.194			
00:00:14	0.185	69.194			
00:00:14	0.286	69.194			
00:00:15	-0.264	69.194			
00:00:15	-0.119	69.194			
00:00:15	-0.311	69.194			
00:00:15	-0.315	69.194			
00:00:15	0.215	69.194			
00:00:15	-0.072	69.194			
00:00:15	0.402	69.194			
00:00:15	0.605	69.194			
00:00:15	0.861	69.194			
00:00:15	2.015	69.194			
00:00:15	2.671	69.194			
00:00:15	4.215	69.194			
00:00:15	5.777	69.194			
00:00:15	7.100	69.194			
00:00:15	8.879	69.194			
00:00:15	9.945	69.194			
00:00:15	11.541	69.194			
00:00:15	13.026	69.194			
00:00:15	13.593	69.194			
00:00:15	14.733	69.194			
00:00:15	15.192	69.194			
00:00:15	15.344	69.194			
00:00:15	15.708	69.194			
00:00:15	15.232	69.194			
00:00:15	15.117	69.194			
00:00:15	14.324	69.194			
00:00:15	13.476	69.194			
00:00:15	13.171	69.194			
00:00:15	12.273	69.194			
00:00:15	11.891	69.194			
00:00:15	11.185	69.194			
00:00:15	10.066	69.194			
00:00:15	9.672	72.453			
00:00:15	8.819	72.453			
00:00:15	8.523	72.453			
00:00:15	7.875	72.453			
00:00:15	6.751	72.458			
00:00:15	6.206	72.458			
00:00:15	5.097	72.458			
00:00:15	4.438	72.458			
00:00:15	3.937	72.458			
00:00:15	2.853	72.458			
00:00:15	2.439	72.458			
00:00:15	1.624	72.458			
00:00:15	1.127	72.458			
00:00:15	1.124	72.458			
00:00:15	0.603	72.458			
00:00:15	0.844	72.458			
00:00:15	0.672	72.458			
00:00:15	0.292	72.458			
00:00:15	0.608	72.458			
00:00:15	0.386	72.458			
00:00:15	0.908	72.458			
00:00:15	1.110	72.458			
00:00:15	1.051	72.458			
00:00:15	1.452	72.458			
00:00:15	1.046	72.458			
00:00:15	1.261	72.458			
00:00:15	1.546	72.458			
00:00:15	1.161	72.458			
00:00:15	1.398	72.458			
00:00:15	0.842	72.458			
00:00:15	0.567	72.458			
00:00:15	0.625	72.458			
00:00:15	0.233	72.458			
00:00:15	0.620	72.458			
00:00:15	0.441	72.458			
00:00:15	0.049	72.458			
00:00:15	0.168	72.458			
00:00:15	-0.229	72.458			
00:00:15	-0.047	72.458			
00:00:15	-0.083	72.458			
00:00:15	-0.495	72.458			
00:00:15	-0.169	72.458			
00:00:15	-0.767	72.458			
00:00:15	-0.708	72.458			
00:00:15	-0.759	72.458			
00:00:15	-1.070	72.458			
00:00:15	-0.760	72.458			
00:00:15	-1.075	72.458			
00:00:15	-1.092	72.458			
00:00:15	-1.005	72.458			
00:00:15	-1.328	72.458			
00:00:15	-0.639	72.458			
00:00:15	-0.809	72.458			
00:00:15	-0.923	72.458			
00:00:15	-0.715	72.458			
00:00:15	-1.180	72.458			
00:00:15	-0.637	72.458			
00:00:15	-0.422	72.458			
00:00:15	-0.273	72.458			
00:00:15	0.385	72.458			
00:00:15	0.142	72.458			
00:00:15	0.362	72.458			
00:00:15	0.471	72.458			
00:00:15	0.397	72.458			
00:00:15	0.911	72.458			
00:00:15	0.358	72.458			
00:00:15	0.277	72.458			
00:00:15	0.358	72.458			
00:00:15	-0.113	72.458			
00:00:15	0.206	72.458			
00:00:15	-0.068	72.458			
00:00:15	-0.146	72.458			
00:00:15	0.124	72.458			
00:00:15	-0.085	72.458			
00:00:15	0.166	72.458			
00:00:15	0.155	72.458			
00:00:15	0.093	72.458			
00:00:15	0.124	72.458			
00:00:15	-0.486	72.458			
00:00:15	-0.278	72.458			
00:00:15	-0.169	72.458			
00:00:15	-0.091	72.458			
00:00:15	0.140	72.458			
00:00:15	-0.163	72.458			
00:00:15	0.100	72.458			
00:00:15	0.545	72.458			
00:00:15	1.078	72.458			
00:00:15	2.654	72.458			
00:00:15	3.917	72.458			
00:00:15	5.796	72.458			
00:00:15	7.749	72.458			
00:00:15	9.577	72.458			
00:00:15	11.989	72.458			
00:00:15	13.374	72.458			
00:00:15	14.662	72.458			
00:00:15	15.872	72.458			
00:00:16	16.334	73.148			
00:00:16	17.200	73.148			
00:00:16	17.216	73.148			
00:00:16	17.162	73.148			
00:00:16	17.218	73.148			
00:00:16	16.379	73.148			
00:00:16	15.911	73.148			
00:00:16	15.036	73.148			
00:00:16	14.070	73.148			
00:00:16	13.653	73.148			
00:00:16	12.539	73.148			
00:00:16	11.896	73.148			
00:00:16	11.137	121.907			
00:00:16	10.121	121.907			
00:00:16	9.884	121.907			
00:00:16	9.089	121.907			
00:00:16	8.520	121.907			
00:00:16	7.918	121.907			
00:00:16	6.793	121.907			
00:00:16	6.439	121.907			
00:00:16	5.412	121.907			
00:00:16	4.479	121.907			
00:00:16	3.756	121.907			
00:00:16	2.458	121.907			
00:00:16	1.933	121.907			
00:00:16	1.134	121.907			
00:00:16	0.652	121.907			
00:00:16	0.878	121.907			
00:00:16	0.479	121.907			
00:00:16	0.579	121.907			
00:00:16	0.555	121.907			
00:00:16	0.486	121.907			
00:00:16	1.064	121.907			
00:00:16	0.868	121.907			
00:00:16	1.299	121.907			
00:00:16	1.427	121.907			
00:00:16	1.225	121.907			
00:00:16	1.975	121.907			
00:00:16	1.715	121.907			
00:00:16	1.721	121.907			
00:00:16	1.832	121.907			
00:00:16	1.377	121.907			
00:00:16	1.740	121.907			
00:00:16	1.424	121.907			
00:00:16	1.160	121.907			
00:00:16	1.248	121.907			
00:00:16	0.654	121.907			
00:00:16	0.831	121.907			
00:00:16	0.505	121.907			
00:00:16	-0.027	121.907			
00:00:16	-0.000	121.907			
00:00:16	-0.513	121.907			
00:00:16	-0.443	121.907			
00:00:16	-0.491	121.907			
00:00:16	-0.926	121.907			
00:00:16	-0.701	121.907			
00:00:16	-1.263	121.907			
00:00:16	-1.233	121.907			
00:00:16	-1.060	121.907			
00:00:16	-1.250	121.907			
00:00:16	-0.754	121.907			
00:00:16	-1.101	121.907			
00:00:16	-1.236	121.907			
00:00:16	-1.165	121.907			
00:00:16	-1.494	121.907			
00:00:16	-1.026	121.907			
00:00:16	-1.072	121.907			
00:00:16	-1.041	121.907			
00:00:16	-0.517	121.907			
00:00:16	-0.769	121.907			
00:00:16	-0.325	121.907			
00:00:16	-0.186	121.907			
00:00:16	-0.148	121.907			
00:00:16	0.314	121.907			
00:00:16	0.023	121.907			
00:00:16	0.353	121.907			
00:00:16	0.425	121.907			
00:00:16	0.307	121.907			
00:00:16	0.859	121.907			
00:00:16	0.688	121.907			
00:00:16	1.001	121.907			
00:00:16	1.305	121.907			
00:00:16	0.867	121.907			
00:00:16	1.021	121.907			
00:00:16	0.411	121.907			
00:00:16	0.242	121.907			
00:00:16	0.457	121.907			
00:00:16	0.186	121.907			
00:00:16	0.426	121.907			
00:00:16	0.190	121.907			
00:00:16	0.194	121.907			
00:00:16	0.229	121.907			
00:00:16	-0.466	121.907			
00:00:16	-0.368	121.907			
00:00:16	-0.395	121.907			
00:00:16	-0.550	121.907			
00:00:16	-0.145	121.907			
00:00:16	-0.192	121.907			
00:00:16	0.697	121.907			
00:00:16	1.464	121.907			
00:00:16	1.913	121.907			
00:00:16	3.327	121.907			
00:00:16	4.536	121.907			
00:00:16	6.295	121.907			
00:00:16	8.280	121.907			
00:00:16	9.620	121.907			
00:00:16	11.578	121.907			
00:00:16	12.738	121.907			
00:00:16	14.060	121.907			
00:00:16	15.552	121.907			
00:00:16	15.971	121.907			
00:00:16	16.528	121.907			
00:00:16	16.633	121.907			
00:00:16	16.528	121.907			
00:00:16	16.702	121.907			
00:00:16	15.872	121.907			
00:00:16	15.517	121.907			
00:00:16	14.891	121.907			
00:00:16	14.030	121.907			
00:00:16	13.650	121.907			
00:00:16	12.352	121.907			
00:00:16	11.495	121.907			
00:00:16	10.888	121.907			
00:00:16	9.877	121.907			
00:00:16	9.561	96.183			
00:00:16	8.533	96.183			
00:00:16	7.818	96.183			
00:00:16	7.260	96.183			
00:00:17	6.102	96.183			
00:00:17	5.675	96.183			
00:00:17	4.720	96.183			
00:00:17	3.950	96.183			
00:00:17	3.488	96.183			
00:00:17	2.307	96.183			
00:00:17	2.062	96.183			
00:00:17	1.383	96.183			
00:00:17	0.762	96.183			
00:00:17	0.680	96.183			
00:00:17	0.034	96.183			
00:00:17	0.159	96.183			
00:00:17	0.151	96.183			
00:00:17	-0.148	96.183			
00:00:17	0.337	96.183			
00:00:17	0.233	96.183			
00:00:17	0.673	96.183			
00:00:17	0.856	96.183			
00:00:17	0.538	96.183			
00:00:17	1.039	96.183			
00:00:17	0.779	96.183			
00:00:17	0.948	96.183			
00:00:17	1.275	96.183			
00:00:17	0.793	96.183			
00:00:17	0.998	96.183			
00:00:17	0.734	96.183			
00:00:17	0.493	96.183			
00:00:17	0.859	96.183			
00:00:17	0.311	96.183			
00:00:17	0.625	96.183			
00:00:17	0.666	96.183			
00:00:17	0.308	96.183			
00:00:17	0.553	96.183			
00:00:17	0.096	96.183			
00:00:17	0.092	96.183			
00:00:17	-0.080	96.183			
00:00:17	-0.767	96.183			
00:00:17	-0.638	96.183			
00:00:17	-0.943	96.183			
00:00:17	-0.867	96.183			
00:00:17	-0.860	96.183			
00:00:17	-1.488	96.183			
00:00:17	-1.136	96.183			
00:00:17	-1.398	96.183			
00:00:17	-1.377	96.183			
00:00:17	-0.839	96.183			
00:00:17	-1.307	96.183			
00:00:17	-0.997	96.183			
00:00:17	-1.141	96.183			
00:00:17	-1.109	96.183			
00:00:17	-0.597	96.183			
00:00:17	-1.148	96.183			
00:00:17	-1.109	96.183			
00:00:17	-1.172	96.183			
00:00:17	-1.348	96.183			
00:00:17	-0.807	96.183			
00:00:17	-0.782	96.183			
00:00:17	-0.294	96.183			
00:00:17	-0.058	96.183			
00:00:17	-0.232	96.183			
00:00:17	0.242	96.183			
00:00:17	0.055	96.183			
00:00:17	0.198	96.183			
00:00:17	0.464	96.183			
00:00:17	0.031	96.183			
00:00:17	0.332	96.183			
00:00:17	0.134	96.183			
00:00:17	0.135	96.183			
00:00:17	0.486	96.183			
00:00:17	0.196	96.183			
00:00:17	0.358	96.183			
00:00:17	0.034	96.183			
00:00:17	-0.192	96.183			
00:00:17	0.090	96.183			
00:00:17	-0.473	96.183			
00:00:17	-0.311	96.183			
00:00:17	-0.291	96.183			
00:00:17	-0.619	96.183			
00:00:17	-0.062	96.183			
00:00:17	-0.319	96.183			
00:00:17	-0.157	96.183			
00:00:17	0.332	96.183			
00:00:17	0.710	96.183			
00:00:17	2.120	96.183			
00:00:17	3.110	96.183			
00:00:17	4.678	96.183			
00:00:17	6.570	96.183			
00:00:17	7.908	96.183			
00:00:17	10.211	96.183			
00:00:17	11.937	96.183			
00:00:17	13.180	96.183			
00:00:17	14.560	96.183			
00:00:17	14.997	96.183			
00:00:17	15.954	96.183			
00:00:17	16.304	96.183			
00:00:17	16.209	96.183			
00:00:17	16.412	96.183			
00:00:17	15.750	96.183			
00:00:17	15.425	96.183			
00:00:17	14.672	96.183			
00:00:17	13.670	96.183			
00:00:17	13.456	96.183			
00:00:17	12.517	96.183			
00:00:17	11.725	96.183			
00:00:17	11.040	69.818			
00:00:17	9.987	69.818			
00:00:17	9.762	69.818			
00:00:17	8.787	69.818			
00:00:17	8.093	69.823			
00:00:17	7.792	69.823			
00:00:17	6.790	69.823			
00:00:17	6.279	69.823			
00:00:17	5.251	69.823			
00:00:17	4.277	69.823			
00:00:17	3.643	69.823			
00:00:17	2.349	69.823			
00:00:17	1.817	69.823			
00:00:17	1.203	69.823			
00:00:17	0.401	69.823			
00:00:17	0.462	69.823			
00:00:17	0.022	69.823			
00:00:17	0.170	69.823			
00:00:17	0.358	69.823			
00:00:17	0.100	69.823			
00:00:17	0.525	69.823			
00:00:17	0.500	69.823			
00:00:17	0.789	69.823			
00:00:17	1.141	69.823			
00:00:18	0.815	69.823			
00:00:18	1.242	69.823			
00:00:18	1.206	69.823			
00:00:18	1.214	69.823			
00:00:18	1.389	69.823			
00:00:18	0.929	69.823			
00:00:18	1.241	69.823			
00:00:18	0.954	69.823			
00:00:18	0.676	69.823			
00:00:18	0.973	69.823			
00:00:18	0.608	69.823			
00:00:18	0.686	69.823			
00:00:18	0.633	69.823			
00:00:18	0.324	69.823			
00:00:18	0.534	69.823			
00:00:18	0.109	69.823			
00:00:18	0.061	69.823			
00:00:18	-0.121	69.823			
00:00:18	-0.654	69.823			
00:00:18	-0.506	69.823			
00:00:18	-0.837	69.823			
00:00:18	-0.834	69.823			
00:00:18	-0.471	69.823			
00:00:18	-0.664	69.823			
00:00:18	-0.170	69.823			
00:00:18	-0.352	69.823			
00:00:18	-0.608	69.823			
00:00:18	-0.417	69.823			
00:00:18	-0.940	69.823			
00:00:18	-0.780	69.823			
00:00:18	-0.888	69.823			
00:00:18	-1.033	69.823			
00:00:18	-0.594	69.823			
00:00:18	-0.908	69.823			
00:00:18	-0.430	69.823			
00:00:18	-0.219	69.823			
00:00:18	-0.306	69.823			
00:00:18	0.316	69.823			
00:00:18	0.060	69.823			
00:00:18	0.156	69.823			
00:00:18	0.383	69.823			
00:00:18	0.019	69.823			
00:00:18	0.206	69.823			
00:00:18	-0.088	69.823			
00:00:18	0.003	69.823			
00:00:18	0.364	69.823			
00:00:18	0.078	69.823			
00:00:18	0.381	69.823			
00:00:18	0.192	69.823			
00:00:18	0.078	69.823			
00:00:18	0.468	69.823			
00:00:18	0.103	69.823			
00:00:18	0.299	69.823			
00:00:18	0.236	69.823			
00:00:18	-0.015	69.823			
00:00:18	0.387	69.823			
00:00:18	-0.116	69.823			
00:00:18	-0.008	69.823			
00:00:18	0.050	69.823			
00:00:18	-0.118	69.823			
00:00:18	0.580	69.823			
00:00:18	1.076	69.823			
00:00:18	2.099	69.823			
00:00:18	3.527	69.823			
00:00:18	4.675	69.823			
00:00:18	6.648	69.823			
00:00:18	7.968	69.823			
00:00:18	9.488	69.823			
00:00:18	11.585	69.823			
00:00:18	12.431	69.823			
00:00:18	13.899	69.823			
00:00:18	14.538	69.823			
00:00:18	14.863	69.823			
00:00:18	15.434	69.823			
00:00:18	14.862	69.823			
00:00:18	14.843	69.823			
00:00:18	14.582	69.823			
00:00:18	14.029	69.823			
00:00:18	13.586	69.823			
00:00:18	12.305	69.823			
00:00:18	11.803	69.823			
00:00:18	11.331	69.823			
00:00:18	10.475	69.823			
00:00:18	10.087	69.823			
00:00:18	9.125	71.776			
00:00:18	8.298	71.776			
00:00:18	7.689	71.776			
00:00:18	6.561	71.776			
00:00:18	6.297	71.781			
00:00:18	5.435	71.781			
00:00:18	4.669	71.781			
00:00:18	4.232	71.781			
00:00:18	2.957	71.781			
00:00:18	2.708	71.781			
00:00:18	2.179	71.781			
00:00:18	1.320	71.781			
00:00:18	1.104	71.781			
00:00:18	0.332	71.781			
00:00:18	0.453	71.781			
00:00:18	0.439	71.781			
00:00:18	0.346	71.781			
00:00:18	0.976	71.781			
00:00:18	0.685	71.781			
00:00:18	0.833	71.781			
00:00:18	1.108	71.781			
00:00:18	0.839	71.781			
00:00:18	1.258	71.781			
00:00:18	0.880	71.781			
00:00:18	0.612	71.781			
00:00:18	0.907	71.781			
00:00:18	0.681	71.781			
00:00:18	1.118	71.781			
00:00:18	1.053	71.781			
00:00:18	0.921	71.781			
00:00:18	1.091	71.781			
00:00:18	0.429	71.781			
00:00:18	0.387	71.781			
00:00:18	0.210	71.781			
00:00:18	-0.188	71.781			
00:00:18	0.082	71.781			
00:00:18	-0.354	71.781			
00:00:18	-0.172	71.781			
00:00:18	-0.346	71.781			
00:00:18	-0.680	71.781			
00:00:18	-0.495	71.781			
00:00:18	-0.986	71.781			
00:00:18	-0.832	71.781			
00:00:18	-0.848	71.781			
00:00:19	-1.158	71.781			
00:00:19	-1.023	71.781			
00:00:19	-1.095	71.781			
00:00:19	-1.064	71.781			
00:00:19	-0.704	71.781			
00:00:19	-1.103	71.781			
00:00:19	-0.672	71.781			
00:00:19	-0.753	71.781			
00:00:19	-0.902	71.781			
00:00:19	-0.455	71.781			
00:00:19	-1.021	71.781			
00:00:19	-1.008	71.781			
00:00:19	-0.888	71.781			
00:00:19	-0.981	71.781			
00:00:19	-0.348	71.781			
00:00:19	-0.383	71.781			
00:00:19	0.111	71.781			
00:00:19	0.487	71.781			
00:00:19	0.338	71.781			
00:00:19	0.860	71.781			
00:00:19	0.376	71.781			
00:00:19	0.332	71.781			
00:00:19	0.443	71.781			
00:00:19	-0.133	71.781			
00:00:19	0.114	71.781			
00:00:19	-0.020	71.781			
00:00:19	-0.107	71.781			
00:00:19	0.290	71.781			
00:00:19	-0.027	71.781			
00:00:19	0.105	71.781			
00:00:19	-0.210	71.781			
00:00:19	-0.748	71.781			
00:00:19	-0.628	71.781			
00:00:19	-1.006	71.781			
00:00:19	-0.719	71.781			
00:00:19	-0.452	71.781			
00:00:19	-0.266	71.781			
00:00:19	0.734	71.781			
00:00:19	1.160	71.781			
00:00:19	2.313	71.781			
00:00:19	3.789	71.781			
00:00:19	5.305	71.781			
00:00:19	7.608	71.781			
00:00:19	9.125	71.781			
00:00:19	10.871	71.781			
00:00:19	12.501	71.781			
00:00:19	13.279	71.781			
00:00:19	14.506	71.781			
00:00:19	15.222	71.781			
00:00:19	15.674	71.781			
00:00:19	16.152	71.781			
00:00:19	15.903	71.781			
00:00:19	15.953	71.781			
00:00:19	15.410	71.781			
00:00:19	14.668	71.781			
00:00:19	14.366	71.781			
00:00:19	13.255	71.781			
00:00:19	12.740	71.781			
00:00:19	12.016	71.781			
00:00:19	10.988	71.781			
00:00:19	10.756	73.846			
00:00:19	9.811	73.846			
00:00:19	9.216	73.846			
00:00:19	8.605	73.846			
00:00:19	7.491	73.851			
00:00:19	7.211	73.851			
00:00:19	6.447	73.851			
00:00:19	5.867	73.851			
00:00:19	5.268	73.851			
00:00:19	3.986	73.851			
00:00:19	3.446	73.851			
00:00:19	2.462	73.851			
00:00:19	1.846	73.851			
00:00:19	1.717	73.851			
00:00:19	0.938	73.851			
00:00:19	0.871	73.851			
00:00:19	0.562	73.851			
00:00:19	0.138	73.851			
00:00:19	0.438	73.851			
00:00:19	0.044	73.851			
00:00:19	0.392	73.851			
00:00:19	0.712	73.851			
00:00:19	0.895	73.851			
00:00:19	1.470	73.851			
00:00:19	1.169	73.851			
00:00:19	1.376	73.851			
00:00:19	1.618	73.851			
00:00:19	1.171	73.851			
00:00:19	1.379	73.851			
00:00:19	1.112	73.851			
00:00:19	1.021	73.851			
00:00:19	1.145	73.851			
00:00:19	0.685	73.851			
00:00:19	0.985	73.851			
00:00:19	0.840	73.851			
00:00:19	0.432	73.851			
00:00:19	0.346	73.851			
00:00:19	-0.192	73.851			
00:00:19	-0.127	73.851			
00:00:19	-0.385	73.851			
00:00:19	-0.864	73.851			
00:00:19	-0.516	73.851			
00:00:19	-1.067	73.851			
00:00:19	-1.131	73.851			
00:00:19	-1.058	73.851			
00:00:19	-1.413	73.851			
00:00:19	-1.190	73.851			
00:00:19	-1.573	73.851			
00:00:19	-1.407	73.851			
00:00:19	-1.119	73.851			
00:00:19	-1.515	73.851			
00:00:19	-1.132	73.851			
00:00:19	-1.384	73.851			
00:00:19	-1.315	73.851			
00:00:19	-0.893	73.851			
00:00:19	-1.340	73.851			
00:00:19	-0.892	73.851			
00:00:19	-0.795	73.851			
00:00:19	-0.768	73.851			
00:00:19	-0.381	73.851			
00:00:19	-0.552	73.851			
00:00:19	-0.014	73.851			
00:00:19	0.231	73.851			
00:00:19	0.178	73.851			
00:00:19	0.664	73.851			
00:00:19	0.397	73.851			
00:00:19	0.479	73.851			
00:00:19	0.504	73.851			
00:00:20	0.328	73.851			
00:00:20	0.646	73.851			
00:00:20	0.111	73.851			
00:00:20	-0.035	73.851			
00:00:20	0.033	73.851			
00:00:20	-0.453	73.851			
00:00:20	-0.259	73.851			
00:00:20	-0.573	73.851			
00:00:20	-0.859	73.851			
00:00:20	-0.673	73.851			
00:00:20	-1.161	73.851			
00:00:20	-0.844	73.851			
00:00:20	-0.907	73.851			
00:00:20	-0.955	73.851			
00:00:20	-0.436	73.851			
00:00:20	-0.780	73.851			
00:00:20	-0.417	73.851			
00:00:20	0.235	73.851			
00:00:20	0.932	73.851			
00:00:20	2.520	73.851			
00:00:20	3.541	73.851			
00:00:20	5.360	73.851			
00:00:20	7.393	73.851			
00:00:20	8.921	73.851			
00:00:20	10.940	73.851			
00:00:20	12.242	73.851			
00:00:20	13.615	73.851			
00:00:20	14.883	73.851			
00:00:20	15.252	73.851			
00:00:20	16.029	73.851			
00:00:20	16.068	73.851			
00:00:20	15.735	73.851			
00:00:20	15.626	73.851			
00:00:20	15.007	73.851			
00:00:20	14.794	73.851			
00:00:20	14.315	73.851			
00:00:20	13.530	73.851			
00:00:20	12.982	73.851			
00:00:20	11.695	73.851			
00:00:20	11.050	73.851			
00:00:20	10.304	70.459			
00:00:20	9.385	70.459			
00:00:20	8.843	70.459			
00:00:20	7.839	70.459			
00:00:20	7.316	70.464			
00:00:20	6.810	70.464			
00:00:20	5.573	70.464			
00:00:20	5.075	70.464			
00:00:20	4.032	70.464			
00:00:20	3.260	70.464			
00:00:20	2.780	70.464			
00:00:20	1.705	70.464			
00:00:20	1.490	70.464			
00:00:20	1.017	70.464			
00:00:20	0.487	70.464			
00:00:20	0.492	70.464			
00:00:20	-0.151	70.464			
00:00:20	-0.286	70.464			
00:00:20	-0.347	70.464			
00:00:20	-0.279	70.464			
00:00:20	0.421	70.464			
00:00:20	0.427	70.464			
00:00:20	0.698	70.464			
00:00:20	0.903	70.464			
00:00:20	0.650	70.464			
00:00:20	0.912	70.464			
00:00:20	0.550	70.464			
00:00:20	0.650	70.464			
00:00:20	0.915	70.464			
00:00:20	0.650	70.464			
00:00:20	0.975	70.464			
00:00:20	0.681	70.464			
00:00:20	0.237	70.464			
00:00:20	0.155	70.464			
00:00:20	-0.234	70.464			
00:00:20	0.183	70.464			
00:00:20	0.137	70.464			
00:00:20	-0.131	70.464			
00:00:20	-0.202	70.464			
00:00:20	-1.003	70.464			
00:00:20	-0.986	70.464			
00:00:20	-1.203	70.464			
00:00:20	-1.738	70.464			
00:00:20	-1.392	70.464			
00:00:20	-1.665	70.464			
00:00:20	-1.642	70.464			
00:00:20	-1.735	70.464			
00:00:20	-2.081	70.464			
00:00:20	-1.650	70.464			
00:00:20	-1.631	70.464			
00:00:20	-1.658	70.464			
00:00:20	-1.617	70.464			
00:00:20	-1.896	70.464			
00:00:20	-1.408	70.464			
00:00:20	-1.602	70.464			
00:00:20	-1.585	70.464			
00:00:20	-1.055	70.464			
00:00:20	-1.319	70.464			
00:00:20	-0.778	70.464			
00:00:20	-0.709	70.464			
00:00:20	-0.693	70.464			
00:00:20	-0.107	70.464			
00:00:20	-0.108	70.464			
00:00:20	0.074	70.464			
00:00:20	-0.015	70.464			
00:00:20	-0.209	70.464			
00:00:20	0.355	70.464			
00:00:20	0.125	70.464			
00:00:20	0.220	70.464			
00:00:20	0.289	70.464			
00:00:20	-0.282	70.464			
00:00:20	0.017	70.464			
00:00:20	-0.168	70.464			
00:00:20	-0.105	70.464			
00:00:20	0.182	70.464			
00:00:20	-0.123	70.464			
00:00:20	0.118	70.464			
00:00:20	-0.371	70.464			
00:00:20	-0.843	70.464			
00:00:20	-0.748	70.464			
00:00:20	-1.315	70.464			
00:00:20	-0.968	70.464			
00:00:20	-0.775	70.464			
00:00:20	-0.397	70.464			
00:00:20	0.537	70.464			
00:00:20	1.032	70.464			
00:00:20	2.419	70.464			
00:00:20	3.879	70.464			
00:00:21	5.417	70.464			
00:00:21	7.839	70.464			
00:00:21	9.061	70.464			
00:00:21	10.750	70.464			
00:00:21	12.142	70.464			
00:00:21	12.991	70.464			
00:00:21	14.119	70.464			
00:00:21	14.536	70.464			
00:00:21	14.939	70.464			
00:00:21	15.305	70.464			
00:00:21	14.822	70.464			
00:00:21	14.796	70.464			
00:00:21	14.380	70.464			
00:00:21	13.621	70.464			
00:00:21	13.260	70.464			
00:00:21	12.047	70.464			
00:00:21	11.443	70.464			
00:00:21	10.526	70.464			
00:00:21	9.553	70.464			
00:00:21	9.379	70.464			
00:00:21	8.317	72.453			
00:00:21	7.785	72.453			
00:00:21	7.246	72.453			
00:00:21	6.365	72.453			
00:00:21	6.027	72.458			
00:00:21	4.890	72.458			
00:00:21	4.093	72.458			
00:00:21	3.384	72.458			
00:00:21	2.140	72.458			
00:00:21	1.742	72.458			
00:00:21	0.834	72.458			
00:00:21	0.228	72.458			
00:00:21	0.060	72.458			
00:00:21	-0.518	72.458			
00:00:21	-0.332	72.458			
00:00:21	-0.415	72.458			
00:00:21	-0.490	72.458			
00:00:21	-0.066	72.458			
00:00:21	-0.375	72.458			
00:00:21	-0.051	72.458			
00:00:21	0.287	72.458			
00:00:21	0.179	72.458			
00:00:21	0.669	72.458			
00:00:21	0.721	72.458			
00:00:21	0.952	72.458			
00:00:21	1.058	72.458			
00:00:21	0.751	72.458			
00:00:21	1.121	72.458			
00:00:21	0.839	72.458			
00:00:21	0.740	72.458			
00:00:21	0.843	72.458			
00:00:21	0.400	72.458			
00:00:21	0.684	72.458			
00:00:21	0.428	72.458			
00:00:21	0.136	72.458			
00:00:21	0.361	72.458			
00:00:21	-0.241	72.458			
00:00:21	-0.216	72.458			
00:00:21	-0.448	72.458			
00:00:21	-0.841	72.458			
00:00:21	-0.573	72.458			
00:00:21	-0.889	72.458			
00:00:21	-0.648	72.458			
00:00:21	-0.807	72.458			
00:00:21	-1.398	72.458			
00:00:21	-1.245	72.458			
00:00:21	-1.671	72.458			
00:00:21	-1.657	72.458			
00:00:21	-1.450	72.458			
00:00:21	-1.700	72.458			
00:00:21	-1.237	72.458			
00:00:21	-1.372	72.458			
00:00:21	-1.252	72.458			
00:00:21	-1.023	72.458			
00:00:21	-1.326	72.458			
00:00:21	-0.831	72.458			
00:00:21	-0.769	72.458			
00:00:21	-0.875	72.458			
00:00:21	-0.480	72.458			
00:00:21	-0.787	72.458			
00:00:21	-0.361	72.458			
00:00:21	-0.361	72.458			
00:00:21	-0.507	72.458			
00:00:21	0.018	72.458			
00:00:21	-0.225	72.458			
00:00:21	-0.142	72.458			
00:00:21	-0.244	72.458			
00:00:21	-0.510	72.458			
00:00:21	-0.056	72.458			
00:00:21	-0.295	72.458			
00:00:21	-0.277	72.458			
00:00:21	-0.180	72.458			
00:00:21	-0.683	72.458			
00:00:21	-0.559	72.458			
00:00:21	-0.850	72.458			
00:00:21	-0.886	72.458			
00:00:21	-0.515	72.458			
00:00:21	-0.755	72.458			
00:00:21	-0.249	72.458			
00:00:21	-0.115	72.458			
00:00:21	0.231	72.458			
00:00:21	1.313	72.458			
00:00:21	1.900	72.458			
00:00:21	3.456	72.458			
00:00:21	5.250	72.458			
00:00:21	6.749	72.458			
00:00:21	8.795	72.458			
00:00:21	9.923	72.458			
00:00:21	11.343	72.458			
00:00:21	12.472	72.458			
00:00:21	13.032	72.458			
00:00:21	13.998	72.458			
00:00:21	13.939	72.458			
00:00:21	14.128	72.458			
00:00:21	14.242	72.458			
00:00:21	13.600	72.458			
00:00:21	13.614	72.458			
00:00:21	13.006	72.458			
00:00:21	12.405	72.458			
00:00:21	12.042	72.458			
00:00:21	10.903	72.458			
00:00:21	10.471	72.458			
00:00:21	9.699	72.458			
00:00:21	8.966	72.458			
00:00:21	8.767	73.846			
00:00:21	7.890	73.846			
00:00:21	7.442	73.846			
00:00:21	6.440	73.846			
00:00:22	5.327	73.851			
00:00:22	4.902	73.851			
00:00:22	3.805	73.851			
00:00:22	2.938	73.851			
00:00:22	2.273	73.851			
00:00:22	1.177	73.851			
00:00:22	0.818	73.851			
00:00:22	-0.019	73.851			
00:00:22	-0.411	73.851			
00:00:22	-0.386	73.851			
00:00:22	-0.866	73.851			
00:00:22	-0.529	73.851			
00:00:22	-0.615	73.851			
00:00:22	-0.671	73.851			
00:00:22	-0.140	73.851			
00:00:22	-0.485	73.851			
00:00:22	-0.145	73.851			
00:00:22	-0.031	73.851			
00:00:22	-0.121	73.851			
00:00:22	0.309	73.851			
00:00:22	-0.009	73.851			
00:00:22	0.106	73.851			
00:00:22	0.172	73.851			
00:00:22	-0.117	73.851			
00:00:22	0.160	73.851			
00:00:22	-0.228	73.851			
00:00:22	-0.180	73.851			
00:00:22	-0.063	73.851			
00:00:22	-0.490	73.851			
00:00:22	-0.248	73.851			
00:00:22	-0.610	73.851			
00:00:22	-0.609	73.851			
00:00:22	-0.280	73.851			
00:00:22	-0.786	73.851			
00:00:22	-0.651	73.851			
00:00:22	-0.894	73.851			
00:00:22	-1.040	73.851			
00:00:22	-0.857	73.851			
00:00:22	-1.375	73.851			
00:00:22	-1.201	73.851			
00:00:22	-1.299	73.851			
00:00:22	-1.539	73.851			
00:00:22	-1.203	73.851			
00:00:22	-1.498	73.851			
00:00:22	-1.394	73.851			
00:00:22	-1.305	73.851			
00:00:22	-1.831	73.851			
00:00:22	-1.644	73.851			
00:00:22	-2.022	73.851			
00:00:22	-2.040	73.851			
00:00:22	-1.826	73.851			
00:00:22	-2.132	73.851			
00:00:22	-1.591	73.851			
00:00:22	-1.584	73.851			
00:00:22	-1.407	73.851			
00:00:22	-1.042	73.851			
00:00:22	-1.271	73.851			
00:00:22	-0.811	73.851			
00:00:22	-0.788	73.851			
00:00:22	-0.870	73.851			
00:00:22	-0.487	73.851			
00:00:22	-0.822	73.851			
00:00:22	-0.668	73.851			
00:00:22	-0.823	73.851			
00:00:22	-1.224	73.851			
00:00:22	-0.821	73.851			
00:00:22	-0.953	73.851			
00:00:22	-0.801	73.851			
00:00:22	-0.851	73.851			
00:00:22	-1.132	73.851			
00:00:22	-0.655	73.851			
00:00:22	-0.828	73.851			
00:00:22	-0.710	73.851			
00:00:22	-0.262	73.851			
00:00:22	-0.442	73.851			
00:00:22	0.393	73.851			
00:00:22	1.052	73.851			
00:00:22	1.969	73.851			
00:00:22	3.667	73.851			
00:00:22	4.907	73.851			
00:00:22	6.958	73.851			
00:00:22	8.541	73.851			
00:00:22	9.753	73.851			
00:00:22	11.457	73.851			
00:00:22	12.394	73.851			
00:00:22	13.756	73.851			
00:00:22	14.513	73.851			
00:00:22	14.551	73.851			
00:00:22	15.071	73.851			
00:00:22	14.795	73.851			
00:00:22	14.732	73.851			
00:00:22	14.523	73.851			
00:00:22	13.596	73.851			
00:00:22	13.269	73.851			
00:00:22	12.387	73.851			
00:00:22	11.921	73.851			
00:00:22	11.493	74.563			
00:00:22	10.300	74.563			
00:00:22	9.810	74.563			
00:00:22	8.910	74.563			
00:00:22	8.193	74.568			
00:00:22	7.907	74.568			
00:00:22	6.750	74.568			
00:00:22	6.372	74.568			
00:00:22	5.578	74.568			
00:00:22	4.554	74.568			
00:00:22	4.135	74.568			
00:00:22	2.968	74.568			
00:00:22	2.272	74.568			
00:00:22	1.574	74.568			
00:00:22	0.515	74.568			
00:00:22	0.284	74.568			
00:00:22	-0.412	74.568			
00:00:22	-0.556	74.568			
00:00:22	-0.519	74.568			
00:00:22	-0.942	74.568			
00:00:22	-0.588	74.568			
00:00:22	-0.680	74.568			
00:00:22	-0.461	74.568			
00:00:22	0.178	74.568			
00:00:22	-0.030	74.568			
00:00:22	0.587	74.568			
00:00:22	0.706	74.568			
00:00:22	0.604	74.568			
00:00:22	0.746	74.568			
00:00:22	0.202	74.568			
00:00:22	0.337	74.568			
00:00:22	0.226	74.568			
00:00:23	-0.081	74.568			
00:00:23	0.178	74.568			
00:00:23	-0.290	74.568			
00:00:23	-0.213	74.568			
00:00:23	-0.367	74.568			
00:00:23	-0.931	74.568			
00:00:23	-0.613	74.568			
00:00:23	-0.992	74.568			
00:00:23	-1.118	74.568			
00:00:23	-1.133	74.568			
00:00:23	-1.668	74.568			
00:00:23	-1.556	74.568			
00:00:23	-1.994	74.568			
00:00:23	-1.939	74.568			
00:00:23	-1.553	74.568			
00:00:23	-1.929	74.568			
00:00:23	-1.617	74.568			
00:00:23	-1.773	74.568			
00:00:23	-1.933	74.568			
00:00:23	-1.564	74.568			
00:00:23	-2.018	74.568			
00:00:23	-1.720	74.568			
00:00:23	-1.608	74.568			
00:00:23	-1.797	74.568			
00:00:23	-1.268	74.568			
00:00:23	-1.554	74.568			
00:00:23	-1.402	74.568			
00:00:23	-1.227	74.568			
00:00:23	-1.510	74.568			
00:00:23	-0.993	74.568			
00:00:23	-1.213	74.568			
00:00:23	-1.019	74.568			
00:00:23	-0.719	74.568			
00:00:23	-1.069	74.568			
00:00:23	-0.715	74.568			
00:00:23	-1.013	74.568			
00:00:23	-0.964	74.568			
00:00:23	-0.666	74.568			
00:00:23	-1.249	74.568			
00:00:23	-1.093	74.568			
00:00:23	-1.198	74.568			
00:00:23	-1.330	74.568			
00:00:23	-0.843	74.568			
00:00:23	-1.199	74.568			
00:00:23	-1.036	74.568			
00:00:23	-0.984	74.568			
00:00:23	-1.308	74.568			
00:00:23	-1.142	74.568			
00:00:23	-1.561	74.568			
00:00:23	-1.370	74.568			
00:00:23	-1.109	74.568			
00:00:23	-1.429	74.568			
00:00:23	-0.705	74.568			
00:00:23	-0.493	74.568			
00:00:23	0.241	74.568			
00:00:23	1.623	74.568			
00:00:23	2.714	74.568			
00:00:23	4.585	74.568			
00:00:23	6.016	74.568			
00:00:23	7.580	74.568			
00:00:23	9.584	74.568			
00:00:23	10.810	74.568			
00:00:23	12.566	74.568			
00:00:23	13.678	74.568			
00:00:23	14.162	74.568			
00:00:23	14.877	74.568			
00:00:23	14.755	74.568			
00:00:23	14.984	74.568			
00:00:23	14.950	74.568			
00:00:23	14.266	74.568			
00:00:23	14.248	74.568			
00:00:23	13.291	74.568			
00:00:23	12.498	74.568			
00:00:23	11.928	74.568			
00:00:23	10.755	74.568			
00:00:23	10.410	74.568			
00:00:23	9.560	71.776			
00:00:23	9.003	71.776			
00:00:23	8.600	71.776			
00:00:23	7.560	71.776			
00:00:23	7.259	71.781			
00:00:23	6.534	71.781			
00:00:23	5.526	71.781			
00:00:23	4.954	71.781			
00:00:23	3.896	71.781			
00:00:23	3.345	71.781			
00:00:23	2.454	71.781			
00:00:23	1.411	71.781			
00:00:23	1.094	71.781			
00:00:23	-0.062	71.781			
00:00:23	-0.383	71.781			
00:00:23	-0.448	71.781			
00:00:23	-0.907	71.781			
00:00:23	-0.614	71.781			
00:00:23	-0.965	71.781			
00:00:23	-0.914	71.781			
00:00:23	-0.473	71.781			
00:00:23	-0.598	71.781			
00:00:23	0.042	71.781			
00:00:23	0.037	71.781			
00:00:23	0.319	71.781			
00:00:23	0.827	71.781			
00:00:23	0.413	71.781			
00:00:23	0.547	71.781			
00:00:23	0.358	71.781			
00:00:23	0.039	71.781			
00:00:23	0.340	71.781			
00:00:23	-0.323	71.781			
00:00:23	-0.244	71.781			
00:00:23	-0.501	71.781			
00:00:23	-0.969	71.781			
00:00:23	-0.639	71.781			
00:00:23	-1.144	71.781			
00:00:23	-1.290	71.781			
00:00:23	-1.384	71.781			
00:00:23	-1.965	71.781			
00:00:23	-1.687	71.781			
00:00:23	-2.045	71.781			
00:00:23	-2.147	71.781			
00:00:23	-1.979	71.781			
00:00:23	-2.379	71.781			
00:00:23	-2.092	71.781			
00:00:23	-2.337	71.781			
00:00:23	-2.527	71.781			
00:00:23	-2.235	71.781			
00:00:23	-2.615	71.781			
00:00:23	-2.410	71.781			
00:00:23	-2.386	71.781			
00:00:24	-2.317	71.781			
00:00:24	-1.731	71.781			
00:00:24	-2.131	71.781			
00:00:24	-2.024	71.781			
00:00:24	-1.886	71.781			
00:00:24	-2.059	71.781			
00:00:24	-1.336	71.781			
00:00:24	-1.488	71.781			
00:00:24	-1.200	71.781			
00:00:24	-0.986	71.781			
00:00:24	-1.345	71.781			
00:00:24	-0.927	71.781			
00:00:24	-1.189	71.781			
00:00:24	-1.114	71.781			
00:00:24	-0.782	71.781			
00:00:24	-1.137	71.781			
00:00:24	-0.877	71.781			
00:00:24	-1.012	71.781			
00:00:24	-1.138	71.781			
00:00:24	-0.986	71.781			
00:00:24	-1.497	71.781			
00:00:24	-1.216	71.781			
00:00:24	-1.174	71.781			
00:00:24	-1.457	71.781			
00:00:24	-1.199	71.781			
00:00:24	-1.860	71.781			
00:00:24	-1.913	71.781			
00:00:24	-1.842	71.781			
00:00:24	-2.194	71.781			
00:00:24	-1.724	71.781			
00:00:24	-1.746	71.781			
00:00:24	-1.533	71.781			
00:00:24	-0.984	71.781			
00:00:24	-0.845	71.781			
00:00:24	0.336	71.781			
00:00:24	1.180	71.781			
00:00:24	2.596	71.781			
00:00:24	4.668	71.781			
00:00:24	6.204	71.781			
00:00:24	8.527	71.781			
00:00:24	10.237	71.781			
00:00:24	11.547	71.781			
00:00:24	13.146	71.781			
00:00:24	13.789	71.781			
00:00:24	14.671	71.781			
00:00:24	15.027	71.781			
00:00:24	14.886	71.781			
00:00:24	15.039	71.781			
00:00:24	14.381	71.781			
00:00:24	14.056	71.781			
00:00:24	13.622	71.781			
00:00:24	12.565	71.781			
00:00:24	12.082	71.781			
00:00:24	10.922	71.781			
00:00:24	10.233	71.781			
00:00:24	9.855	71.781			
00:00:24	8.830	71.776			
00:00:24	8.543	71.776			
00:00:24	7.609	71.776			
00:00:24	6.820	71.776			
00:00:24	6.422	71.781			
00:00:24	5.319	71.781			
00:00:24	4.883	71.781			
00:00:24	3.978	71.781			
00:00:24	2.835	71.781			
00:00:24	2.234	71.781			
00:00:24	1.041	71.781			
00:00:24	0.597	71.781			
00:00:24	0.173	71.781			
00:00:24	-0.593	71.781			
00:00:24	-0.648	71.781			
00:00:24	-1.223	71.781			
00:00:24	-1.330	71.781			
00:00:24	-1.278	71.781			
00:00:24	-1.519	71.781			
00:00:24	-1.015	71.781			
00:00:24	-0.837	71.781			
00:00:24	-0.332	71.781			
00:00:24	0.277	71.781			
00:00:24	-0.012	71.781			
00:00:24	0.230	71.781			
00:00:24	0.133	71.781			
00:00:24	0.345	71.781			
00:00:24	0.869	71.781			
00:00:24	0.560	71.781			
00:00:24	0.738	71.781			
00:00:24	0.591	71.781			
00:00:24	0.137	71.781			
00:00:24	0.374	71.781			
00:00:24	-0.198	71.781			
00:00:24	-0.109	71.781			
00:00:24	-0.202	71.781			
00:00:24	-0.685	71.781			
00:00:24	-0.548	71.781			
00:00:24	-1.221	71.781			
00:00:24	-1.318	71.781			
00:00:24	-1.517	71.781			
00:00:24	-2.215	71.781			
00:00:24	-1.974	71.781			
00:00:24	-2.063	71.781			
00:00:24	-2.103	71.781			
00:00:24	-1.933	71.781			
00:00:24	-2.402	71.781			
00:00:24	-2.006	71.781			
00:00:24	-2.095	71.781			
00:00:24	-2.194	71.781			
00:00:24	-1.868	71.781			
00:00:24	-2.403	71.781			
00:00:24	-2.222	71.781			
00:00:24	-2.126	71.781			
00:00:24	-2.301	71.781			
00:00:24	-1.863	71.781			
00:00:24	-2.148	71.781			
00:00:24	-1.673	71.781			
00:00:24	-1.258	71.781			
00:00:24	-1.374	71.781			
00:00:24	-0.850	71.781			
00:00:24	-1.172	71.781			
00:00:24	-1.006	71.781			
00:00:24	-0.543	71.781			
00:00:24	-0.893	71.781			
00:00:24	-0.289	71.781			
00:00:24	-0.450	71.781			
00:00:24	-0.556	71.781			
00:00:24	-0.321	71.781			
00:00:24	-0.750	71.781			
00:00:24	-0.493	71.781			
00:00:24	-0.750	71.781			
00:00:25	-1.004	71.781			
00:00:25	-0.799	71.781			
00:00:25	-1.321	71.781			
00:00:25	-1.131	71.781			
00:00:25	-1.311	71.781			
00:00:25	-1.559	71.781			
00:00:25	-1.075	71.781			
00:00:25	-1.437	71.781			
00:00:25	-1.188	71.781			
00:00:25	-0.866	71.781			
00:00:25	-0.649	71.781			
00:00:25	0.509	71.781			
00:00:25	1.240	71.781			
00:00:25	2.731	71.781			
00:00:25	4.678	71.781			
00:00:25	6.114	71.781			
00:00:25	8.166	71.781			
00:00:25	9.470	71.781			
00:00:25	10.760	71.781			
00:00:25	12.428	71.781			
00:00:25	12.985	71.781			
00:00:25	13.943	71.781			
00:00:25	14.050	71.781			
00:00:25	13.920	71.781			
00:00:25	14.159	71.781			
00:00:25	13.616	71.781			
00:00:25	13.146	71.781			
00:00:25	12.626	71.781			
00:00:25	11.814	71.781			
00:00:25	11.617	71.781			
00:00:25	10.628	71.781			
00:00:25	10.048	71.781			
00:00:25	9.477	73.143			
00:00:25	8.492	73.143			
00:00:25	8.284	73.143			
00:00:25	7.362	73.143			
00:00:25	6.451	73.148			
00:00:25	5.905	73.148			
00:00:25	4.798	73.148			
00:00:25	4.326	73.148			
00:00:25	3.266	73.148			
00:00:25	2.461	73.148			
00:00:25	2.028	73.148			
00:00:25	0.775	73.148			
00:00:25	0.259	73.148			
00:00:25	-0.372	73.148			
00:00:25	-0.888	73.148			
00:00:25	-0.524	73.148			
00:00:25	-0.747	73.148			
00:00:25	-0.647	73.148			
00:00:25	-0.641	73.148			
00:00:25	-0.837	73.148			
00:00:25	-0.448	73.148			
00:00:25	-0.760	73.148			
00:00:25	-0.592	73.148			
00:00:25	-0.186	73.148			
00:00:25	-0.377	73.148			
00:00:25	-0.023	73.148			
00:00:25	-0.157	73.148			
00:00:25	-0.235	73.148			
00:00:25	-0.049	73.148			
00:00:25	-0.490	73.148			
00:00:25	-0.220	73.148			
00:00:25	-0.149	73.148			
00:00:25	-0.306	73.148			
00:00:25	-0.163	73.148			
00:00:25	-0.830	73.148			
00:00:25	-0.729	73.148			
00:00:25	-0.730	73.148			
00:00:25	-0.972	73.148			
00:00:25	-0.619	73.148			
00:00:25	-1.162	73.148			
00:00:25	-0.995	73.148			
00:00:25	-0.990	73.148			
00:00:25	-1.436	73.148			
00:00:25	-1.240	73.148			
00:00:25	-1.670	73.148			
00:00:25	-1.788	73.148			
00:00:25	-1.891	73.148			
00:00:25	-2.408	73.148			
00:00:25	-2.040	73.148			
00:00:25	-2.223	73.148			
00:00:25	-2.203	73.148			
00:00:25	-1.809	73.148			
00:00:25	-2.169	73.148			
00:00:25	-1.819	73.148			
00:00:25	-2.136	73.148			
00:00:25	-2.507	73.148			
00:00:25	-2.214	73.148			
00:00:25	-2.541	73.148			
00:00:25	-2.200	73.148			
00:00:25	-2.042	73.148			
00:00:25	-2.049	73.148			
00:00:25	-1.481	73.148			
00:00:25	-1.582	73.148			
00:00:25	-1.354	73.148			
00:00:25	-0.962	73.148			
00:00:25	-1.128	73.148			
00:00:25	-0.917	73.148			
00:00:25	-1.428	73.148			
00:00:25	-1.453	73.148			
00:00:25	-1.119	73.148			
00:00:25	-1.393	73.148			
00:00:25	-0.907	73.148			
00:00:25	-1.041	73.148			
00:00:25	-1.085	73.148			
00:00:25	-0.692	73.148			
00:00:25	-1.115	73.148			
00:00:25	-0.932	73.148			
00:00:25	-1.060	73.148			
00:00:25	-1.295	73.148			
00:00:25	-0.822	73.148			
00:00:25	-0.970	73.148			
00:00:25	-0.490	73.148			
00:00:25	0.329	73.148			
00:00:25	1.229	73.148			
00:00:25	2.731	73.148			
00:00:25	3.860	73.148			
00:00:25	5.663	73.148			
00:00:25	7.503	73.148			
00:00:25	8.790	73.148			
00:00:25	10.742	73.148			
00:00:25	11.968	73.148			
00:00:25	12.983	73.148			
00:00:25	14.039	73.148			
00:00:25	14.275	73.148			
00:00:25	15.100	73.148			
00:00:25	15.153	73.148			
00:00:26	14.936	73.148			
00:00:26	14.896	73.148			
00:00:26	13.964	73.148			
00:00:26	13.597	73.148			
00:00:26	13.003	73.148			
00:00:26	12.134	73.148			
00:00:26	11.772	73.148			
00:00:26	10.532	73.148			
00:00:26	9.829	73.846			
00:00:26	9.055	73.846			
00:00:26	7.935	73.846			
00:00:26	7.797	73.846			
00:00:26	6.936	73.851			
00:00:26	6.278	73.851			
00:00:26	5.804	73.851			
00:00:26	4.614	73.851			
00:00:26	4.301	73.851			
00:00:26	3.221	73.851			
00:00:26	2.369	73.851			
00:00:26	1.709	73.851			
00:00:26	0.639	73.851			
00:00:26	0.428	73.851			
00:00:26	-0.219	73.851			
00:00:26	-0.794	73.851			
00:00:26	-0.691	73.851			
00:00:26	-1.091	73.851			
00:00:26	-0.742	73.851			
00:00:26	-0.677	73.851			
00:00:26	-0.763	73.851			
00:00:26	-0.374	73.851			
00:00:26	-0.613	73.851			
00:00:26	-0.262	73.851			
00:00:26	0.009	73.851			
00:00:26	-0.237	73.851			
00:00:26	0.192	73.851			
00:00:26	-0.017	73.851			
00:00:26	-0.025	73.851			
00:00:26	0.291	73.851			
00:00:26	-0.056	73.851			
00:00:26	0.266	73.851			
00:00:26	0.029	73.851			
00:00:26	-0.255	73.851			
00:00:26	-0.153	73.851			
00:00:26	-0.884	73.851			
00:00:26	-0.755	73.851			
00:00:26	-1.050	73.851			
00:00:26	-1.322	73.851			
00:00:26	-1.178	73.851			
00:00:26	-1.708	73.851			
00:00:26	-1.584	73.851			
00:00:26	-1.634	73.851			
00:00:26	-1.866	73.851			
00:00:26	-1.561	73.851			
00:00:26	-1.923	73.851			
00:00:26	-1.866	73.851			
00:00:26	-1.741	73.851			
00:00:26	-2.118	73.851			
00:00:26	-1.737	73.851			
00:00:26	-1.979	73.851			
00:00:26	-1.909	73.851			
00:00:26	-1.600	73.851			
00:00:26	-2.117	73.851			
00:00:26	-1.677	73.851			
00:00:26	-1.674	73.851			
00:00:26	-1.650	73.851			
00:00:26	-1.160	73.851			
00:00:26	-1.506	73.851			
00:00:26	-1.152	73.851			
00:00:26	-1.134	73.851			
00:00:26	-1.418	73.851			
00:00:26	-1.096	73.851			
00:00:26	-1.407	73.851			
00:00:26	-1.170	73.851			
00:00:26	-1.129	73.851			
00:00:26	-1.421	73.851			
00:00:26	-0.878	73.851			
00:00:26	-1.180	73.851			
00:00:26	-1.115	73.851			
00:00:26	-1.040	73.851			
00:00:26	-1.549	73.851			
00:00:26	-1.086	73.851			
00:00:26	-1.256	73.851			
00:00:26	-1.362	73.851			
00:00:26	-1.246	73.851			
00:00:26	-1.698	73.851			
00:00:26	-1.223	73.851			
00:00:26	-1.373	73.851			
00:00:26	-1.496	73.851			
00:00:26	-1.220	73.851			
00:00:26	-1.511	73.851			
00:00:26	-1.030	73.851			
00:00:26	-0.507	73.851			
00:00:26	0.024	73.851			
00:00:26	1.488	73.851			
00:00:26	2.410	73.851			
00:00:26	4.013	73.851			
00:00:26	5.800	73.851			
00:00:26	7.172	73.851			
00:00:26	9.246	73.851			
00:00:26	10.581	73.851			
00:00:26	12.214	73.851			
00:00:26	13.748	73.851			
00:00:26	14.522	73.851			
00:00:26	15.599	73.851			
00:00:26	15.610	73.851			
00:00:26	15.511	73.851			
00:00:26	15.505	73.851			
00:00:26	14.559	73.851			
00:00:26	14.286	73.851			
00:00:26	13.582	73.851			
00:00:26	12.765	73.851			
00:00:26	12.431	73.851			
00:00:26	11.215	73.851			
00:00:26	10.813	73.851			
00:00:26	10.082	73.851			
00:00:26	9.048	73.851			
00:00:26	8.790	72.453			
00:00:26	7.872	72.453			
00:00:26	7.174	72.453			
00:00:26	6.270	72.453			
00:00:26	5.110	72.458			
00:00:26	4.794	72.458			
00:00:26	3.806	72.458			
00:00:26	3.058	72.458			
00:00:26	2.452	72.458			
00:00:26	1.402	72.458			
00:00:26	1.072	72.458			
00:00:26	0.338	72.458			
00:00:27	-0.210	72.458			
00:00:27	-0.161	72.458			
00:00:27	-0.730	72.458			
00:00:27	-0.515	72.458			
00:00:27	-0.497	72.458			
00:00:27	-0.546	72.458			
00:00:27	-0.076	72.458			
00:00:27	-0.398	72.458			
00:00:27	-0.274	72.458			
00:00:27	-0.260	72.458			
00:00:27	-0.366	72.458			
00:00:27	0.115	72.458			
00:00:27	-0.165	72.458			
00:00:27	-0.004	72.458			
00:00:27	0.175	72.458			
00:00:27	-0.175	72.458			
00:00:27	0.225	72.458			
00:00:27	-0.295	72.458			
00:00:27	-0.526	72.458			
00:00:27	-0.528	72.458			
00:00:27	-1.157	72.458			
00:00:27	-1.046	72.458			
00:00:27	-1.252	72.458			
00:00:27	-1.404	72.458			
00:00:27	-1.242	72.458			
00:00:27	-1.946	72.458			
00:00:27	-1.711	72.458			
00:00:27	-1.854	72.458			
00:00:27	-2.327	72.458			
00:00:27	-2.099	72.458			
00:00:27	-2.613	72.458			
00:00:27	-2.526	72.458			
00:00:27	-2.481	72.458			
00:00:27	-2.731	72.458			
00:00:27	-2.381	72.458			
00:00:27	-2.595	72.458			
00:00:27	-2.441	72.458			
00:00:27	-2.139	72.458			
00:00:27	-2.502	72.458			
00:00:27	-2.208	72.458			
00:00:27	-2.397	72.458			
00:00:27	-2.455	72.458			
00:00:27	-1.994	72.458			
00:00:27	-2.096	72.458			
00:00:27	-1.544	72.458			
00:00:27	-1.627	72.458			
00:00:27	-1.598	72.458			
00:00:27	-1.179	72.458			
00:00:27	-1.500	72.458			
00:00:27	-1.059	72.458			
00:00:27	-0.918	72.458			
00:00:27	-1.062	72.458			
00:00:27	-0.738	72.458			
00:00:27	-1.058	72.458			
00:00:27	-0.977	72.458			
00:00:27	-0.918	72.458			
00:00:27	-1.271	72.458			
00:00:27	-0.805	72.458			
00:00:27	-1.095	72.458			
00:00:27	-1.199	72.458			
00:00:27	-1.052	72.458			
00:00:27	-1.559	72.458			
00:00:27	-1.340	72.458			
00:00:27	-1.688	72.458			
00:00:27	-1.888	72.458			
00:00:27	-1.759	72.458			
00:00:27	-2.228	72.458			
00:00:27	-1.905	72.458			
00:00:27	-1.901	72.458			
00:00:27	-1.711	72.458			
00:00:27	-0.830	72.458			
00:00:27	-0.486	72.458			
00:00:27	0.662	72.458			
00:00:27	1.816	72.458			
00:00:27	3.173	72.458			
00:00:27	5.288	72.458			
00:00:27	6.558	72.458			
00:00:27	8.383	72.458			
00:00:27	10.230	72.458			
00:00:27	11.650	72.458			
00:00:27	13.496	72.458			
00:00:27	14.136	72.458			
00:00:27	14.912	72.458			
00:00:27	15.472	72.458			
00:00:27	15.230	72.458			
00:00:27	15.539	72.458			
00:00:27	15.200	72.458			
00:00:27	14.660	72.458			
00:00:27	14.209	72.458			
00:00:27	13.082	72.458			
00:00:27	12.499	72.458			
00:00:27	11.623	72.458			
00:00:27	10.647	71.776			
00:00:27	10.241	71.776			
00:00:27	8.956	71.776			
00:00:27	8.372	71.776			
00:00:27	7.733	71.781			
00:00:27	6.686	71.781			
00:00:27	6.489	71.781			
00:00:27	5.558	71.781			
00:00:27	4.787	71.781			
00:00:27	3.927	71.781			
00:00:27	2.635	71.781			
00:00:27	2.164	71.781			
00:00:27	1.195	71.781			
00:00:27	0.414	71.781			
00:00:27	0.138	71.781			
00:00:27	-0.813	71.781			
00:00:27	-0.879	71.781			
00:00:27	-1.372	71.781			
00:00:27	-1.633	71.781			
00:00:27	-1.094	71.781			
00:00:27	-1.373	71.781			
00:00:27	-0.917	71.781			
00:00:27	-0.769	71.781			
00:00:27	-0.948	71.781			
00:00:27	-0.327	71.781			
00:00:27	-0.496	71.781			
00:00:27	-0.125	71.781			
00:00:27	0.226	71.781			
00:00:27	-0.012	71.781			
00:00:27	0.660	71.781			
00:00:27	0.384	71.781			
00:00:27	0.336	71.781			
00:00:27	0.370	71.781			
00:00:27	-0.201	71.781			
00:00:27	0.063	71.781			
00:00:27	-0.408	71.781			
00:00:28	-0.730	71.781			
00:00:28	-0.571	71.781			
00:00:28	-1.019	71.781			
00:00:28	-0.790	71.781			
00:00:28	-1.065	71.781			
00:00:28	-1.328	71.781			
00:00:28	-1.173	71.781			
00:00:28	-1.666	71.781			
00:00:28	-1.535	71.781			
00:00:28	-1.703	71.781			
00:00:28	-1.948	71.781			
00:00:28	-1.710	71.781			
00:00:28	-2.239	71.781			
00:00:28	-2.160	71.781			
00:00:28	-1.943	71.781			
00:00:28	-2.092	71.781			
00:00:28	-1.714	71.781			
00:00:28	-2.023	71.781			
00:00:28	-2.090	71.781			
00:00:28	-1.817	71.781			
00:00:28	-2.146	71.781			
00:00:28	-1.626	71.781			
00:00:28	-1.662	71.781			
00:00:28	-1.556	71.781			
00:00:28	-1.049	71.781			
00:00:28	-1.326	71.781			
00:00:28	-0.874	71.781			
00:00:28	-0.824	71.781			
00:00:28	-0.941	71.781			
00:00:28	-0.434	71.781			
00:00:28	-0.856	71.781			
00:00:28	-0.395	71.781			
00:00:28	-0.256	71.781			
00:00:28	-0.778	71.781			
00:00:28	-0.608	71.781			
00:00:28	-0.993	71.781			
00:00:28	-0.873	71.781			
00:00:28	-0.634	71.781			
00:00:28	-0.884	71.781			
00:00:28	-0.388	71.781			
00:00:28	-0.865	71.781			
00:00:28	-1.086	71.781			
00:00:28	-0.936	71.781			
00:00:28	-1.644	71.781			
00:00:28	-1.323	71.781			
00:00:28	-1.384	71.781			
00:00:28	-1.371	71.781			
00:00:28	-0.704	71.781			
00:00:28	-0.549	71.781			
00:00:28	0.617	71.781			
00:00:28	1.741	71.781			
00:00:28	2.936	71.781			
00:00:28	5.020	71.781			
00:00:28	6.392	71.781			
00:00:28	8.155	71.781			
00:00:28	9.730	71.781			
00:00:28	10.858	71.781			
00:00:28	12.498	71.781			
00:00:28	13.248	71.781			
00:00:28	14.101	71.781			
00:00:28	14.545	71.781			
00:00:28	14.352	71.781			
00:00:28	14.614	71.781			
00:00:28	13.928	71.781			
00:00:28	13.378	71.781			
00:00:28	13.031	71.781			
00:00:28	11.971	71.781			
00:00:28	11.626	71.781			
00:00:28	10.766	71.781			
00:00:28	10.085	71.781			
00:00:28	9.712	71.781			
00:00:28	8.603	71.781			
00:00:28	8.224	73.143			
00:00:28	7.524	73.143			
00:00:28	6.416	73.143			
00:00:28	6.042	73.143			
00:00:28	5.019	73.148			
00:00:28	4.280	73.148			
00:00:28	3.468	73.148			
00:00:28	2.053	73.148			
00:00:28	1.679	73.148			
00:00:28	0.785	73.148			
00:00:28	0.323	73.148			
00:00:28	0.023	73.148			
00:00:28	-0.811	73.148			
00:00:28	-0.706	73.148			
00:00:28	-1.073	73.148			
00:00:28	-1.132	73.148			
00:00:28	-0.666	73.148			
00:00:28	-0.784	73.148			
00:00:28	-0.078	73.148			
00:00:28	0.047	73.148			
00:00:28	0.004	73.148			
00:00:28	0.397	73.148			
00:00:28	-0.122	73.148			
00:00:28	0.127	73.148			
00:00:28	0.241	73.148			
00:00:28	0.092	73.148			
00:00:28	0.533	73.148			
00:00:28	-0.025	73.148			
00:00:28	-0.063	73.148			
00:00:28	0.133	73.148			
00:00:28	-0.320	73.148			
00:00:28	0.002	73.148			
00:00:28	-0.300	73.148			
00:00:28	-0.461	73.148			
00:00:28	-0.277	73.148			
00:00:28	-0.848	73.148			
00:00:28	-0.715	73.148			
00:00:28	-1.202	73.148			
00:00:28	-1.424	73.148			
00:00:28	-1.153	73.148			
00:00:28	-1.575	73.148			
00:00:28	-1.375	73.148			
00:00:28	-1.435	73.148			
00:00:28	-1.759	73.148			
00:00:28	-1.566	73.148			
00:00:28	-2.097	73.148			
00:00:28	-1.871	73.148			
00:00:28	-1.791	73.148			
00:00:28	-1.994	73.148			
00:00:28	-1.780	73.148			
00:00:28	-2.329	73.148			
00:00:28	-2.258	73.148			
00:00:28	-1.993	73.148			
00:00:28	-2.218	73.148			
00:00:28	-1.624	73.148			
00:00:28	-1.783	73.148			
00:00:29	-1.671	73.148			
00:00:29	-1.358	73.148			
00:00:29	-1.671	73.148			
00:00:29	-1.269	73.148			
00:00:29	-1.260	73.148			
00:00:29	-1.353	73.148			
00:00:29	-0.970	73.148			
00:00:29	-1.318	73.148			
00:00:29	-1.032	73.148			
00:00:29	-1.047	73.148			
00:00:29	-1.125	73.148			
00:00:29	-0.820	73.148			
00:00:29	-1.306	73.148			
00:00:29	-1.070	73.148			
00:00:29	-1.006	73.148			
00:00:29	-1.304	73.148			
00:00:29	-0.832	73.148			
00:00:29	-1.152	73.148			
00:00:29	-1.066	73.148			
00:00:29	-0.814	73.148			
00:00:29	-0.935	73.148			
00:00:29	-0.216	73.148			
00:00:29	0.003	73.148			
00:00:29	0.804	73.148			
00:00:29	1.976	73.148			
00:00:29	2.855	73.148			
00:00:29	4.744	73.148			
00:00:29	6.392	73.148			
00:00:29	7.961	73.148			
00:00:29	9.981	73.148			
00:00:29	11.145	73.148			
00:00:29	12.727	73.148			
00:00:29	13.632	73.148			
00:00:29	13.985	73.148			
00:00:29	14.790	73.148			
00:00:29	14.718	73.148			
00:00:29	14.702	73.148			
00:00:29	14.611	73.148			
00:00:29	13.900	73.148			
00:00:29	13.661	73.148			
00:00:29	12.713	73.148			
00:00:29	12.064	73.148			
00:00:29	11.463	73.148			
00:00:29	10.482	73.148			
00:00:29	10.243	74.563			
00:00:29	9.442	74.563			
00:00:29	8.603	74.563			
00:00:29	8.241	74.563			
00:00:29	7.090	74.568			
00:00:29	6.565	74.568			
00:00:29	5.702	74.568			
00:00:29	4.765	74.568			
00:00:29	4.295	74.568			
00:00:29	3.011	74.568			
00:00:29	2.340	74.568			
00:00:29	1.687	74.568			
00:00:29	0.948	74.568			
00:00:29	0.967	74.568			
00:00:29	0.246	74.568			
00:00:29	-0.070	74.568			
00:00:29	-0.088	74.568			
00:00:29	-0.429	74.568			
00:00:29	-0.051	74.568			
00:00:29	-0.356	74.568			
00:00:29	-0.208	74.568			
00:00:29	0.148	74.568			
00:00:29	-0.108	74.568			
00:00:29	0.379	74.568			
00:00:29	0.382	74.568			
00:00:29	0.302	74.568			
00:00:29	0.547	74.568			
00:00:29	-0.051	74.568			
00:00:29	0.090	74.568			
00:00:29	-0.135	74.568			
00:00:29	-0.273	74.568			
00:00:29	0.191	74.568			
00:00:29	-0.143	74.568			
00:00:29	-0.152	74.568			
00:00:29	-0.472	74.568			
00:00:29	-0.941	74.568			
00:00:29	-0.688	74.568			
00:00:29	-1.112	74.568			
00:00:29	-1.068	74.568			
00:00:29	-0.919	74.568			
00:00:29	-1.455	74.568			
00:00:29	-1.280	74.568			
00:00:29	-1.596	74.568			
00:00:29	-1.735	74.568			
00:00:29	-1.744	74.568			
00:00:29	-2.320	74.568			
00:00:29	-2.106	74.568			
00:00:29	-2.266	74.568			
00:00:29	-2.322	74.568			
00:00:29	-1.882	74.568			
00:00:29	-2.255	74.568			
00:00:29	-1.997	74.568			
00:00:29	-2.009	74.568			
00:00:29	-2.004	74.568			
00:00:29	-1.537	74.568			
00:00:29	-1.853	74.568			
00:00:29	-1.760	74.568			
00:00:29	-1.727	74.568			
00:00:29	-2.002	74.568			
00:00:29	-1.423	74.568			
00:00:29	-1.410	74.568			
00:00:29	-1.193	74.568			
00:00:29	-0.755	74.568			
00:00:29	-0.978	74.568			
00:00:29	-0.510	74.568			
00:00:29	-0.658	74.568			
00:00:29	-0.581	74.568			
00:00:29	-0.201	74.568			
00:00:29	-0.507	74.568			
00:00:29	-0.243	74.568			
00:00:29	-0.505	74.568			
00:00:29	-0.752	74.568			
00:00:29	-0.557	74.568			
00:00:29	-1.083	74.568			
00:00:29	-1.113	74.568			
00:00:29	-1.198	74.568			
00:00:29	-1.493	74.568			
00:00:29	-1.039	74.568			
00:00:29	-1.499	74.568			
00:00:29	-1.391	74.568			
00:00:29	-1.171	74.568			
00:00:29	-1.123	74.568			
00:00:29	0.000	74.568			
00:00:29	0.709	74.568			
00:00:30	2.010	74.568			
00:00:30	3.778	74.568			
00:00:30	4.916	74.568			
00:00:30	6.899	74.568			
00:00:30	8.621	74.568			
00:00:30	10.311	74.568			
00:00:30	12.256	74.568			
00:00:30	13.101	74.568			
00:00:30	14.297	74.568			
00:00:30	14.838	74.568			
00:00:30	15.042	74.568			
00:00:30	15.675	74.568			
00:00:30	15.331	74.568			
00:00:30	15.312	74.568			
00:00:30	14.928	74.568			
00:00:30	14.203	74.568			
00:00:30	14.243	74.568			
00:00:30	13.244	74.568			
00:00:30	12.549	74.568			
00:00:30	11.817	74.568			
00:00:30	10.658	74.563			
00:00:30	10.323	74.563			
00:00:30	9.289	74.563			
00:00:30	8.685	74.563			
00:00:30	8.330	74.568			
00:00:30	7.156	74.568			
00:00:30	6.674	74.568			
00:00:30	5.617	74.568			
00:00:30	4.509	74.568			
00:00:30	3.728	74.568			
00:00:30	2.470	74.568			
00:00:30	2.011	74.568			
00:00:30	1.266	74.568			
00:00:30	0.328	74.568			
00:00:30	0.065	74.568			
00:00:30	-0.795	74.568			
00:00:30	-0.719	74.568			
00:00:30	-0.704	74.568			
00:00:30	-1.017	74.568			
00:00:30	-0.468	74.568			
00:00:30	-0.600	74.568			
00:00:30	-0.552	74.568			
00:00:30	-0.356	74.568			
00:00:30	-0.697	74.568			
00:00:30	-0.151	74.568			
00:00:30	-0.266	74.568			
00:00:30	-0.170	74.568			
00:00:30	0.164	74.568			
00:00:30	-0.013	74.568			
00:00:30	0.357	74.568			
00:00:30	0.212	74.568			
00:00:30	-0.096	74.568			
00:00:30	0.200	74.568			
00:00:30	-0.272	74.568			
00:00:30	-0.066	74.568			
00:00:30	-0.217	74.568			
00:00:30	-0.585	74.568			
00:00:30	-0.281	74.568			
00:00:30	-0.955	74.568			
00:00:30	-1.078	74.568			
00:00:30	-1.191	74.568			
00:00:30	-1.704	74.568			
00:00:30	-1.415	74.568			
00:00:30	-1.993	74.568			
00:00:30	-2.153	74.568			
00:00:30	-2.150	74.568			
00:00:30	-2.621	74.568			
00:00:30	-2.247	74.568			
00:00:30	-2.230	74.568			
00:00:30	-2.074	74.568			
00:00:30	-1.848	74.568			
00:00:30	-2.403	74.568			
00:00:30	-2.146	74.568			
00:00:30	-2.188	74.568			
00:00:30	-2.409	74.568			
00:00:30	-1.937	74.568			
00:00:30	-2.201	74.568			
00:00:30	-1.878	74.568			
00:00:30	-1.703	74.568			
00:00:30	-1.849	74.568			
00:00:30	-1.356	74.568			
00:00:30	-1.532	74.568			
00:00:30	-1.149	74.568			
00:00:30	-0.901	74.568			
00:00:30	-1.152	74.568			
00:00:30	-0.722	74.568			
00:00:30	-0.996	74.568			
00:00:30	-0.902	74.568			
00:00:30	-0.690	74.568			
00:00:30	-1.015	74.568			
00:00:30	-0.570	74.568			
00:00:30	-0.597	74.568			
00:00:30	-0.784	74.568			
00:00:30	-0.646	74.568			
00:00:30	-1.198	74.568			
00:00:30	-1.108	74.568			
00:00:30	-1.335	74.568			
00:00:30	-1.534	74.568			
00:00:30	-1.084	74.568			
00:00:30	-1.282	74.568			
00:00:30	-0.950	74.568			
00:00:30	-0.933	74.568			
00:00:30	-1.247	74.568			
00:00:30	-0.413	74.568			
00:00:30	0.108	74.568			
00:00:30	1.384	74.568			
00:00:30	3.072	74.568			
00:00:30	4.395	74.568			
00:00:30	6.513	74.568			
00:00:30	7.890	74.568			
00:00:30	9.298	74.568			
00:00:30	11.074	74.568			
00:00:30	12.043	74.568			
00:00:30	13.381	74.568			
00:00:30	13.818	74.568			
00:00:30	14.110	74.568			
00:00:30	14.707	74.568			
00:00:30	14.486	74.568			
00:00:30	14.765	74.568			
00:00:30	14.486	74.568			
00:00:30	13.696	74.568			
00:00:30	13.347	74.568			
00:00:30	12.416	74.568			
00:00:30	11.876	74.568			
00:00:30	11.284	74.568			
00:00:30	10.398	74.568			
00:00:30	10.112	74.568			
00:00:30	9.151	74.568			
00:00:31	8.586	72.453			
00:00:31	8.119	72.453			
00:00:31	7.290	72.453			
00:00:31	7.136	72.453			
00:00:31	6.063	72.458			
00:00:31	5.026	72.458			
00:00:31	4.459	72.458			
00:00:31	3.334	72.458			
00:00:31	2.928	72.458			
00:00:31	2.100	72.458			
00:00:31	1.198	72.458			
00:00:31	0.793	72.458			
00:00:31	-0.272	72.458			
00:00:31	-0.462	72.458			
00:00:31	-0.678	72.458			
00:00:31	-0.827	72.458			
00:00:31	-0.330	72.458			
00:00:31	-0.649	72.458			
00:00:31	-0.610	72.458			
00:00:31	-0.404	72.458			
00:00:31	-0.553	72.458			
00:00:31	0.056	72.458			
00:00:31	-0.270	72.458			
00:00:31	-0.242	72.458			
00:00:31	0.059	72.458			
00:00:31	-0.137	72.458			
00:00:31	0.251	72.458			
00:00:31	0.027	72.458			
00:00:31	-0.176	72.458			
00:00:31	0.003	72.458			
00:00:31	-0.510	72.458			
00:00:31	-0.336	72.458			
00:00:31	-0.746	72.458			
00:00:31	-1.256	72.458			
00:00:31	-1.060	72.458			
00:00:31	-1.512	72.458			
00:00:31	-1.507	72.458			
00:00:31	-1.533	72.458			
00:00:31	-1.760	72.458			
00:00:31	-1.318	72.458			
00:00:31	-1.819	72.458			
00:00:31	-1.980	72.458			
00:00:31	-1.997	72.458			
00:00:31	-2.390	72.458			
00:00:31	-2.001	72.458			
00:00:31	-2.155	72.458			
00:00:31	-2.102	72.458			
00:00:31	-1.652	72.458			
00:00:31	-2.043	72.458			
00:00:31	-1.615	72.458			
00:00:31	-1.719	72.458			
00:00:31	-1.707	72.458			
00:00:31	-1.209	72.458			
00:00:31	-1.343	72.458			
00:00:31	-0.951	72.458			
00:00:31	-1.101	72.458			
00:00:31	-1.406	72.458			
00:00:31	-0.976	72.458			
00:00:31	-1.197	72.458			
00:00:31	-0.869	72.458			
00:00:31	-0.620	72.458			
00:00:31	-0.840	72.458			
00:00:31	-0.391	72.458			
00:00:31	-0.701	72.458			
00:00:31	-0.620	72.458			
00:00:31	-0.504	72.458			
00:00:31	-0.902	72.458			
00:00:31	-0.743	72.458			
00:00:31	-1.074	72.458			
00:00:31	-1.391	72.458			
00:00:31	-1.323	72.458			
00:00:31	-1.658	72.458			
00:00:31	-1.364	72.458			
00:00:31	-1.622	72.458			
00:00:31	-1.809	72.458			
00:00:31	-1.417	72.458			
00:00:31	-1.681	72.458			
00:00:31	-1.368	72.458			
00:00:31	-1.426	72.458			
00:00:31	-1.596	72.458			
00:00:31	-0.931	72.458			
00:00:31	-0.628	72.458			
00:00:31	0.468	72.458			
00:00:31	1.858	72.458			
00:00:31	2.981	72.458			
00:00:31	5.067	72.458			
00:00:31	6.591	72.458			
00:00:31	8.319	72.458			
00:00:31	10.101	72.458			
00:00:31	11.232	72.458			
00:00:31	12.804	72.458			
00:00:31	13.663	72.458			
00:00:31	14.397	72.458			
00:00:31	15.185	72.458			
00:00:31	14.932	72.458			
00:00:31	15.108	72.458			
00:00:31	14.671	72.458			
00:00:31	13.996	72.458			
00:00:31	13.656	72.458			
00:00:31	12.559	72.458			
00:00:31	12.059	72.458			
00:00:31	11.486	72.458			
00:00:31	10.376	72.458			
00:00:31	10.001	72.458			
00:00:31	8.941	73.143			
00:00:31	8.218	73.143			
00:00:31	7.576	73.143			
00:00:31	6.457	73.143			
00:00:31	6.032	73.148			
00:00:31	4.919	73.148			
00:00:31	3.925	73.148			
00:00:31	3.347	73.148			
00:00:31	2.023	73.148			
00:00:31	1.419	73.148			
00:00:31	0.459	73.148			
00:00:31	-0.375	73.148			
00:00:31	-0.616	73.148			
00:00:31	-1.310	73.148			
00:00:31	-1.155	73.148			
00:00:31	-1.357	73.148			
00:00:31	-1.644	73.148			
00:00:31	-1.195	73.148			
00:00:31	-1.353	73.148			
00:00:31	-0.812	73.148			
00:00:31	-0.464	73.148			
00:00:31	-0.434	73.148			
00:00:31	0.193	73.148			
00:00:31	0.087	73.148			
00:00:32	0.309	72.458			
00:00:32	0.664	72.458			
00:00:32	0.476	72.458			
00:00:32	0.918	72.458			
00:00:32	0.578	72.458			
00:00:32	0.340	72.458			
00:00:32	0.427	72.458			
00:00:32	-0.135	72.458			
00:00:32	0.173	72.458			
00:00:32	0.038	72.458			
00:00:32	-0.277	72.458			
00:00:32	-0.197	72.458			
00:00:32	-0.853	72.458			
00:00:32	-0.820	72.458			
00:00:32	-0.942	72.458			
00:00:32	-1.375	72.458			
00:00:32	-1.363	72.458			
00:00:32	-1.814	72.458			
00:00:32	-1.734	72.458			
00:00:32	-1.772	72.458			
00:00:32	-2.275	72.458			
00:00:32	-2.156	72.458			
00:00:32	-2.544	72.458			
00:00:32	-2.426	72.458			
00:00:32	-2.141	72.458			
00:00:32	-2.567	72.458			
00:00:32	-2.129	72.458			
00:00:32	-2.217	72.458			
00:00:32	-2.198	72.458			
00:00:32	-1.889	72.458			
00:00:32	-2.117	72.458			
00:00:32	-1.789	72.458			
00:00:32	-1.744	72.458			
00:00:32	-1.693	72.458			
00:00:32	-1.087	72.458			
00:00:32	-1.367	72.458			
00:00:32	-1.122	72.458			
00:00:32	-1.022	72.458			
00:00:32	-1.222	72.458			
00:00:32	-0.761	72.458			
00:00:32	-1.058	72.458			
00:00:32	-0.814	72.458			
00:00:32	-0.635	72.458			
00:00:32	-1.077	72.458			
00:00:32	-0.738	72.458			
00:00:32	-0.919	72.458			
00:00:32	-0.882	72.458			
00:00:32	-0.499	72.458			
00:00:32	-0.813	72.458			
00:00:32	-0.558	72.458			
00:00:32	-0.885	72.458			
00:00:32	-1.127	72.458			
00:00:32	-0.967	72.458			
00:00:32	-1.423	72.458			
00:00:32	-1.022	72.458			
00:00:32	-0.866	72.458			
00:00:32	-0.620	72.458			
00:00:32	0.371	72.458			
00:00:32	0.951	72.458			
00:00:32	2.411	72.458			
00:00:32	3.832	72.458			
00:00:32	4.909	72.458			
00:00:32	6.863	72.458			
00:00:32	8.165	72.458			
00:00:32	9.860	72.458			
00:00:32	11.376	72.458			
00:00:32	12.076	72.458			
00:00:32	13.123	72.458			
00:00:32	13.414	72.458			
00:00:32	13.735	72.458			
00:00:32	14.082	72.458			
00:00:32	13.629	72.458			
00:00:32	13.667	72.458			
00:00:32	13.194	72.458			
00:00:32	12.791	72.458			
00:00:32	12.508	72.458			
00:00:32	11.392	72.458			
00:00:32	10.886	72.458			
00:00:32	10.127	72.458			
00:00:32	9.118	72.458			
00:00:32	8.827	58.626			
00:00:32	7.816	58.626			
00:00:32	7.296	58.626			
00:00:32	6.830	58.626			
00:00:32	5.811	58.631			
00:00:32	5.299	58.631			
00:00:32	4.187	58.631			
00:00:32	3.520	58.631			
00:00:32	2.974	58.631			
00:00:32	1.893	58.631			
00:00:32	1.475	58.631			
00:00:32	0.586	58.631			
00:00:32	-0.012	58.631			
00:00:32	-0.264	58.631			
00:00:32	-1.014	58.631			
00:00:32	-0.888	58.631			
00:00:32	-0.837	58.631			
00:00:32	-0.996	58.631			
00:00:32	-0.630	58.631			
00:00:32	-0.934	58.631			
00:00:32	-0.542	58.631			
00:00:32	-0.232	58.631			
00:00:32	-0.164	58.631			
00:00:32	0.463	58.631			
00:00:32	0.160	58.631			
00:00:32	0.370	58.631			
00:00:32	0.551	58.631			
00:00:32	0.133	58.631			
00:00:32	0.317	58.631			
00:00:32	-0.165	58.631			
00:00:32	-0.361	58.631			
00:00:32	-0.198	58.631			
00:00:32	-0.704	58.631			
00:00:32	-0.664	58.631			
00:00:32	-1.054	58.631			
00:00:32	-1.355	58.631			
00:00:32	-1.105	58.631			
00:00:32	-1.499	58.631			
00:00:32	-1.367	58.631			
00:00:32	-1.485	58.631			
00:00:32	-1.988	58.631			
00:00:32	-1.915	58.631			
00:00:32	-2.393	58.631			
00:00:32	-2.267	58.631			
00:00:32	-2.217	58.631			
00:00:32	-2.465	58.631			
00:00:32	-2.121	58.631			
00:00:32	-2.436	58.631			
00:00:33	-2.304	58.631			
00:00:33	-2.100	58.631			
00:00:33	-2.476	58.631			
00:00:33	-2.105	58.631			
00:00:33	-2.228	58.631			
00:00:33	-2.050	58.631			
00:00:33	-1.668	58.631			
00:00:33	-1.995	58.631			
00:00:33	-1.685	58.631			
00:00:33	-1.871	58.631			
00:00:33	-1.998	58.631			
00:00:33	-1.467	58.631			
00:00:33	-1.744	58.631			
00:00:33	-1.346	58.631			
00:00:33	-1.012	58.631			
00:00:33	-1.036	58.631			
00:00:33	-0.612	58.631			
00:00:33	-1.100	58.631			
00:00:33	-0.944	58.631			
00:00:33	-0.891	58.631			
00:00:33	-1.311	58.631			
00:00:33	-0.961	58.631			
00:00:33	-1.225	58.631			
00:00:33	-1.327	58.631			
00:00:33	-1.233	58.631			
00:00:33	-1.630	58.631			
00:00:33	-1.191	58.631			
00:00:33	-1.354	58.631			
00:00:33	-1.375	58.631			
00:00:33	-1.044	58.631			
00:00:33	-1.379	58.631			
00:00:33	-0.960	58.631			
00:00:33	-0.747	58.631			
00:00:33	-0.254	58.631			
00:00:33	1.037	58.631			
00:00:33	1.950	58.631			
00:00:33	3.622	58.631			
00:00:33	5.189	58.631			
00:00:33	6.508	58.631			
00:00:33	8.488	58.631			
00:00:33	9.881	58.631			
00:00:33	11.699	58.631			
00:00:33	13.280	58.631			
00:00:33	14.128	58.631			
00:00:33	15.233	58.631			
00:00:33	15.431	58.631			
00:00:33	15.662	58.631			
00:00:33	15.840	58.631			
00:00:33	15.007	58.631			
00:00:33	14.797	58.631			
00:00:33	14.013	58.631			
00:00:33	13.382	58.631			
00:00:33	13.155	58.631			
00:00:33	12.144	58.631			
00:00:33	11.656	58.631			
00:00:33	10.839	58.631			
00:00:33	9.787	73.846			
00:00:33	9.536	73.846			
00:00:33	8.579	73.846			
00:00:33	8.062	73.846			
00:00:33	7.388	73.851			
00:00:33	6.271	73.851			
00:00:33	5.805	73.851			
00:00:33	4.464	73.851			
00:00:33	3.530	73.851			
00:00:33	2.769	73.851			
00:00:33	1.603	73.851			
00:00:33	1.224	73.851			
00:00:33	0.306	73.851			
00:00:33	-0.437	73.851			
00:00:33	-0.772	73.851			
00:00:33	-1.555	73.851			
00:00:33	-1.272	73.851			
00:00:33	-1.279	73.851			
00:00:33	-1.316	73.851			
00:00:33	-0.794	73.851			
00:00:33	-1.105	73.851			
00:00:33	-0.759	73.851			
00:00:33	-0.739	73.851			
00:00:33	-0.913	73.851			
00:00:33	-0.460	73.851			
00:00:33	-0.675	73.851			
00:00:33	-0.435	73.851			
00:00:33	-0.148	73.851			
00:00:33	-0.358	73.851			
00:00:33	-0.045	73.851			
00:00:33	-0.476	73.851			
00:00:33	-0.435	73.851			
00:00:33	-0.345	73.851			
00:00:33	-0.686	73.851			
00:00:33	-0.279	73.851			
00:00:33	-0.524	73.851			
00:00:33	-0.704	73.851			
00:00:33	-0.583	73.851			
00:00:33	-1.098	73.851			
00:00:33	-0.832	73.851			
00:00:33	-1.003	73.851			
00:00:33	-1.234	73.851			
00:00:33	-0.950	73.851			
00:00:33	-1.544	73.851			
00:00:33	-1.498	73.851			
00:00:33	-1.731	73.851			
00:00:33	-2.309	73.851			
00:00:33	-2.087	73.851			
00:00:33	-2.307	73.851			
00:00:33	-2.069	73.851			
00:00:33	-1.993	73.851			
00:00:33	-2.646	73.851			
00:00:33	-2.451	73.851			
00:00:33	-2.853	73.851			
00:00:33	-2.759	73.851			
00:00:33	-2.409	73.851			
00:00:33	-2.701	73.851			
00:00:33	-2.198	73.851			
00:00:33	-2.188	73.851			
00:00:33	-2.265	73.851			
00:00:33	-1.957	73.851			
00:00:33	-2.169	73.851			
00:00:33	-1.859	73.851			
00:00:33	-1.807	73.851			
00:00:33	-1.814	73.851			
00:00:33	-1.373	73.851			
00:00:33	-1.665	73.851			
00:00:33	-1.286	73.851			
00:00:33	-1.149	73.851			
00:00:33	-1.257	73.851			
00:00:33	-0.696	73.851			
00:00:33	-1.098	73.851			
00:00:34	-0.878	73.851			
00:00:34	-0.624	73.851			
00:00:34	-0.998	73.851			
00:00:34	-0.660	73.851			
00:00:34	-1.055	73.851			
00:00:34	-1.403	73.851			
00:00:34	-1.327	73.851			
00:00:34	-1.857	73.851			
00:00:34	-1.540	73.851			
00:00:34	-1.387	73.851			
00:00:34	-1.104	73.851			
00:00:34	-0.043	73.851			
00:00:34	0.583	73.851			
00:00:34	2.019	73.851			
00:00:34	3.347	73.851			
00:00:34	4.538	73.851			
00:00:34	6.533	73.851			
00:00:34	7.970	73.851			
00:00:34	10.039	73.851			
00:00:34	11.772	73.851			
00:00:34	12.563	73.851			
00:00:34	13.771	73.851			
00:00:34	14.082	73.851			
00:00:34	14.689	73.851			
00:00:34	15.050	73.851			
00:00:34	14.485	73.851			
00:00:34	14.555	73.851			
00:00:34	14.046	73.851			
00:00:34	13.479	73.851			
00:00:34	13.217	73.851			
00:00:34	12.161	73.851			
00:00:34	11.815	73.851			
00:00:34	11.115	72.453			
00:00:34	10.200	72.453			
00:00:34	9.648	72.453			
00:00:34	8.548	72.453			
00:00:34	7.942	72.458			
00:00:34	7.138	72.458			
00:00:34	5.991	72.458			
00:00:34	5.505	72.458			
00:00:34	4.216	72.458			
00:00:34	3.541	72.458			
00:00:34	2.802	72.458			
00:00:34	1.752	72.458			
00:00:34	1.629	72.458			
00:00:34	0.684	72.458			
00:00:34	0.044	72.458			
00:00:34	-0.319	72.458			
00:00:34	-1.062	72.458			
00:00:34	-0.898	72.458			
00:00:34	-1.194	72.458			
00:00:34	-1.284	72.458			
00:00:34	-0.922	72.458			
00:00:34	-1.045	72.458			
00:00:34	-0.559	72.458			
00:00:34	-0.525	72.458			
00:00:34	-0.620	72.458			
00:00:34	0.005	72.458			
00:00:34	-0.129	72.458			
00:00:34	0.142	72.458			
00:00:34	0.215	72.458			
00:00:34	-0.159	72.458			
00:00:34	0.208	72.458			
00:00:34	-0.164	72.458			
00:00:34	-0.239	72.458			
00:00:34	-0.243	72.458			
00:00:34	-0.813	72.458			
00:00:34	-0.666	72.458			
00:00:34	-1.276	72.458			
00:00:34	-1.521	72.458			
00:00:34	-1.407	72.458			
00:00:34	-1.989	72.458			
00:00:34	-1.672	72.458			
00:00:34	-1.833	72.458			
00:00:34	-1.969	72.458			
00:00:34	-1.832	72.458			
00:00:34	-2.391	72.458			
00:00:34	-2.329	72.458			
00:00:34	-2.549	72.458			
00:00:34	-2.896	72.458			
00:00:34	-2.475	72.458			
00:00:34	-2.704	72.458			
00:00:34	-2.512	72.458			
00:00:34	-2.533	72.458			
00:00:34	-2.905	72.458			
00:00:34	-2.450	72.458			
00:00:34	-2.630	72.458			
00:00:34	-2.462	72.458			
00:00:34	-2.191	72.458			
00:00:34	-2.581	72.458			
00:00:34	-2.208	72.458			
00:00:34	-2.209	72.458			
00:00:34	-2.130	72.458			
00:00:34	-1.749	72.458			
00:00:34	-2.061	72.458			
00:00:34	-1.481	72.458			
00:00:34	-1.391	72.458			
00:00:34	-1.539	72.458			
00:00:34	-1.246	72.458			
00:00:34	-1.640	72.458			
00:00:34	-1.386	72.458			
00:00:34	-1.362	72.458			
00:00:34	-1.396	72.458			
00:00:34	-0.858	72.458			
00:00:34	-0.986	72.458			
00:00:34	-0.785	72.458			
00:00:34	-0.793	72.458			
00:00:34	-1.136	72.458			
00:00:34	-0.874	72.458			
00:00:34	-1.234	72.458			
00:00:34	-1.390	72.458			
00:00:34	-1.318	72.458			
00:00:34	-1.883	72.458			
00:00:34	-1.674	72.458			
00:00:34	-1.739	72.458			
00:00:34	-1.752	72.458			
00:00:34	-1.273	72.458			
00:00:34	-1.238	72.458			
00:00:34	-0.345	72.458			
00:00:34	0.490	72.458			
00:00:34	1.383	72.458			
00:00:34	3.141	72.458			
00:00:34	4.502	72.458			
00:00:34	6.440	72.458			
00:00:34	8.137	72.458			
00:00:34	9.556	72.458			
00:00:34	11.446	72.458			
00:00:34	12.300	72.458			
00:00:35	13.293	72.458			
00:00:35	14.216	72.458			
00:00:35	14.292	72.458			
00:00:35	14.889	72.458			
00:00:35	14.614	72.458			
00:00:35	14.397	72.458			
00:00:35	14.248	72.458			
00:00:35	13.341	72.458			
00:00:35	12.926	72.458			
00:00:35	12.077	72.458			
00:00:35	11.185	72.458			
00:00:35	10.783	72.458			
00:00:35	9.596	71.776			
00:00:35	9.049	71.776			
00:00:35	8.165	71.776			
00:00:35	7.179	71.776			
00:00:35	6.870	71.781			
00:00:35	5.791	71.781			
00:00:35	5.237	71.781			
00:00:35	4.593	71.781			
00:00:35	3.617	71.781			
00:00:35	3.063	71.781			
00:00:35	1.866	71.781			
00:00:35	1.034	71.781			
00:00:35	0.522	71.781			
00:00:35	-0.233	71.781			
00:00:35	-0.233	71.781			
00:00:35	-0.775	71.781			
00:00:35	-1.078	71.781			
00:00:35	-0.847	71.781			
00:00:35	-1.142	71.781			
00:00:35	-0.802	71.781			
00:00:35	-0.699	71.781			
00:00:35	-0.674	71.781			
00:00:35	0.033	71.781			
00:00:35	-0.050	71.781			
00:00:35	0.414	71.781			
00:00:35	0.524	71.781			
00:00:35	0.352	71.781			
00:00:35	0.853	71.781			
00:00:35	0.538	71.781			
00:00:35	0.604	71.781			
00:00:35	0.502	71.781			
00:00:35	-0.122	71.781			
00:00:35	-0.004	71.781			
00:00:35	-0.482	71.781			
00:00:35	-0.666	71.781			
00:00:35	-0.632	71.781			
00:00:35	-1.111	71.781			
00:00:35	-0.806	71.781			
00:00:35	-1.195	71.781			
00:00:35	-1.500	71.781			
00:00:35	-1.342	71.781			
00:00:35	-1.980	71.781			
00:00:35	-1.893	71.781			
00:00:35	-1.914	71.781			
00:00:35	-2.171	71.781			
00:00:35	-1.872	71.781			
00:00:35	-2.378	71.781			
00:00:35	-2.382	71.781			
00:00:35	-2.391	71.781			
00:00:35	-2.650	71.781			
00:00:35	-2.230	71.781			
00:00:35	-2.422	71.781			
00:00:35	-2.017	71.781			
00:00:35	-1.620	71.781			
00:00:35	-1.828	71.781			
00:00:35	-1.520	71.781			
00:00:35	-1.755	71.781			
00:00:35	-1.737	71.781			
00:00:35	-1.347	71.781			
00:00:35	-1.567	71.781			
00:00:35	-1.060	71.781			
00:00:35	-1.215	71.781			
00:00:35	-1.253	71.781			
00:00:35	-0.761	71.781			
00:00:35	-1.020	71.781			
00:00:35	-0.811	71.781			
00:00:35	-0.791	71.781			
00:00:35	-0.981	71.781			
00:00:35	-0.645	71.781			
00:00:35	-0.990	71.781			
00:00:35	-0.719	71.781			
00:00:35	-0.647	71.781			
00:00:35	-0.940	71.781			
00:00:35	-0.718	71.781			
00:00:35	-1.147	71.781			
00:00:35	-1.225	71.781			
00:00:35	-1.109	71.781			
00:00:35	-1.499	71.781			
00:00:35	-1.272	71.781			
00:00:35	-1.405	71.781			
00:00:35	-1.191	71.781			
00:00:35	-0.392	71.781			
00:00:35	-0.119	71.781			
00:00:35	1.132	71.781			
00:00:35	2.078	71.781			
00:00:35	3.247	71.781			
00:00:35	5.266	71.781			
00:00:35	6.563	71.781			
00:00:35	8.422	71.781			
00:00:35	10.128	71.781			
00:00:35	11.286	71.781			
00:00:35	12.943	71.781			
00:00:35	13.628	71.781			
00:00:35	14.317	71.781			
00:00:35	14.803	71.781			
00:00:35	14.631	71.781			
00:00:35	14.839	71.781			
00:00:35	14.177	71.781			
00:00:35	13.747	71.781			
00:00:35	13.480	71.781			
00:00:35	12.325	71.781			
00:00:35	11.868	71.781			
00:00:35	10.933	71.781			
00:00:35	10.038	71.781			
00:00:35	9.651	73.846			
00:00:35	8.532	73.846			
00:00:35	8.008	73.846			
00:00:35	7.245	73.846			
00:00:35	6.171	73.851			
00:00:35	5.628	73.851			
00:00:35	4.370	73.851			
00:00:35	3.589	73.851			
00:00:35	2.766	73.851			
00:00:35	1.536	73.851			
00:00:35	1.006	73.851			
00:00:35	-0.100	73.851			
00:00:36	-0.500	73.851			
00:00:36	-0.857	73.851			
00:00:36	-1.526	73.851			
00:00:36	-1.130	73.851			
00:00:36	-1.282	73.851			
00:00:36	-1.210	73.851			
00:00:36	-0.775	73.851			
00:00:36	-0.989	73.851			
00:00:36	-0.653	73.851			
00:00:36	-0.609	73.851			
00:00:36	-0.637	73.851			
00:00:36	-0.159	73.851			
00:00:36	-0.604	73.851			
00:00:36	-0.354	73.851			
00:00:36	-0.329	73.851			
00:00:36	-0.621	73.851			
00:00:36	0.015	73.851			
00:00:36	-0.234	73.851			
00:00:36	-0.162	73.851			
00:00:36	0.115	73.851			
00:00:36	-0.169	73.851			
00:00:36	0.012	73.851			
00:00:36	-0.382	73.851			
00:00:36	-0.554	73.851			
00:00:36	-0.427	73.851			
00:00:36	-1.139	73.851			
00:00:36	-0.955	73.851			
00:00:36	-1.350	73.851			
00:00:36	-1.637	73.851			
00:00:36	-1.426	73.851			
00:00:36	-2.074	73.851			
00:00:36	-1.895	73.851			
00:00:36	-1.981	73.851			
00:00:36	-2.404	73.851			
00:00:36	-2.099	73.851			
00:00:36	-2.646	73.851			
00:00:36	-2.505	73.851			
00:00:36	-2.334	73.851			
00:00:36	-2.854	73.851			
00:00:36	-2.366	73.851			
00:00:36	-2.751	73.851			
00:00:36	-2.729	73.851			
00:00:36	-2.376	73.851			
00:00:36	-2.657	73.851			
00:00:36	-2.250	73.851			
00:00:36	-2.518	73.851			
00:00:36	-2.674	73.851			
00:00:36	-2.192	73.851			
00:00:36	-2.257	73.851			
00:00:36	-1.620	73.851			
00:00:36	-1.495	73.851			
00:00:36	-1.639	73.851			
00:00:36	-1.140	73.851			
00:00:36	-1.477	73.851			
00:00:36	-1.136	73.851			
