RAW Data export file (tab separated)


Client:	,kozawa
Session:	kozawa6
Date:	06-07-2020
Time:	10:42:13
Duration:	120	Seconds.
Output rate:	128	Samples/sec.

hh:mm:ss	128 SPS	32 SPS	
TIME	Sensor-G:BVP	HR (BVP)	Events	Segments	


00:00:00	14.648	70.000			
00:00:00	14.234	70.000			
00:00:00	14.056	70.000			
00:00:00	13.533	70.000			
00:00:00	12.949	70.000			
00:00:00	12.465	70.000			
00:00:00	11.450	70.000			
00:00:00	10.747	70.000			
00:00:00	9.965	70.000			
00:00:00	9.127	70.000			
00:00:00	8.537	70.000			
00:00:00	7.594	70.000			
00:00:00	6.883	70.000			
00:00:00	6.067	70.000			
00:00:00	5.144	70.000			
00:00:00	4.360	70.000			
00:00:00	3.263	70.000			
00:00:00	2.552	70.000			
00:00:00	1.955	70.000			
00:00:00	1.147	70.000			
00:00:00	0.709	70.000			
00:00:00	0.091	70.000			
00:00:00	-0.459	70.000			
00:00:00	-0.759	70.000			
00:00:00	-1.055	70.000			
00:00:00	-1.062	70.000			
00:00:00	-0.908	70.000			
00:00:00	-0.873	70.000			
00:00:00	-0.778	70.000			
00:00:00	-0.725	70.000			
00:00:00	-0.245	70.000			
00:00:00	0.026	70.000			
00:00:00	0.141	70.000			
00:00:00	0.518	70.000			
00:00:00	0.498	70.000			
00:00:00	0.406	70.000			
00:00:00	0.372	70.000			
00:00:00	0.123	70.000			
00:00:00	0.172	70.000			
00:00:00	0.171	70.000			
00:00:00	0.162	70.000			
00:00:00	0.171	70.000			
00:00:00	-0.080	70.000			
00:00:00	-0.171	70.000			
00:00:00	-0.426	70.000			
00:00:00	-0.671	70.000			
00:00:00	-0.785	70.000			
00:00:00	-1.031	70.000			
00:00:00	-1.121	70.000			
00:00:00	-1.265	70.000			
00:00:00	-1.426	70.000			
00:00:00	-1.383	70.000			
00:00:00	-1.539	70.000			
00:00:00	-1.693	70.000			
00:00:00	-1.505	70.000			
00:00:00	-1.522	70.000			
00:00:00	-1.457	70.000			
00:00:00	-1.446	70.000			
00:00:00	-1.380	70.000			
00:00:00	-1.413	70.000			
00:00:00	-1.701	70.000			
00:00:00	-1.738	70.000			
00:00:00	-1.905	70.000			
00:00:00	-2.044	70.000			
00:00:00	-1.852	70.000			
00:00:00	-1.868	70.000			
00:00:00	-1.730	70.000			
00:00:00	-1.606	70.000			
00:00:00	-1.575	70.000			
00:00:00	-1.215	70.000			
00:00:00	-1.155	70.000			
00:00:00	-1.017	70.000			
00:00:00	-0.995	70.000			
00:00:00	-1.067	70.000			
00:00:00	-1.026	70.000			
00:00:00	-1.305	70.000			
00:00:00	-1.398	70.000			
00:00:00	-1.401	70.000			
00:00:00	-1.634	70.000			
00:00:00	-1.384	70.000			
00:00:00	-1.390	70.000			
00:00:00	-1.567	70.000			
00:00:00	-1.505	70.000			
00:00:00	-1.725	70.000			
00:00:00	-1.642	70.000			
00:00:00	-1.606	70.000			
00:00:00	-1.689	70.000			
00:00:00	-1.554	70.000			
00:00:00	-1.393	70.000			
00:00:00	-0.848	70.000			
00:00:00	-0.136	70.000			
00:00:00	0.654	70.000			
00:00:00	1.826	70.000			
00:00:00	3.072	70.000			
00:00:00	4.777	70.000			
00:00:00	6.500	70.000			
00:00:00	8.011	70.000			
00:00:00	9.716	70.000			
00:00:00	11.054	70.000			
00:00:00	12.303	70.000			
00:00:00	13.193	70.000			
00:00:00	13.651	70.000			
00:00:00	14.189	70.000			
00:00:00	14.092	70.000			
00:00:00	14.019	70.000			
00:00:00	13.917	70.000			
00:00:00	13.271	70.000			
00:00:00	12.697	70.000			
00:00:00	11.820	70.000			
00:00:00	10.914	70.000			
00:00:00	10.306	70.000			
00:00:00	9.438	70.000			
00:00:00	8.893	70.000			
00:00:00	8.002	70.000			
00:00:00	7.183	70.000			
00:00:00	6.538	70.000			
00:00:00	5.662	70.000			
00:00:00	5.065	70.000			
00:00:00	4.254	70.000			
00:00:00	3.469	70.000			
00:00:00	2.888	70.000			
00:00:00	2.025	70.000			
00:00:00	1.519	70.000			
00:00:00	0.853	70.000			
00:00:00	-0.042	70.000			
00:00:00	-0.484	70.000			
00:00:00	-1.000	70.000			
00:00:00	-1.034	70.000			
00:00:01	-0.925	70.000			
00:00:01	-1.000	70.000			
00:00:01	-0.667	70.000			
00:00:01	-0.546	70.000			
00:00:01	-0.475	70.000			
00:00:01	-0.403	70.000			
00:00:01	-0.365	70.000			
00:00:01	-0.054	70.000			
00:00:01	0.043	70.000			
00:00:01	0.049	70.000			
00:00:01	0.149	70.000			
00:00:01	-0.054	70.000			
00:00:01	0.001	70.000			
00:00:01	-0.163	70.000			
00:00:01	-0.350	70.000			
00:00:01	-0.398	70.000			
00:00:01	-0.541	70.000			
00:00:01	-0.524	70.000			
00:00:01	-0.581	70.000			
00:00:01	-0.818	70.000			
00:00:01	-0.843	70.000			
00:00:01	-0.978	70.000			
00:00:01	-1.204	70.000			
00:00:01	-1.343	70.000			
00:00:01	-1.722	70.000			
00:00:01	-1.827	70.000			
00:00:01	-2.022	70.000			
00:00:01	-2.260	70.000			
00:00:01	-2.260	70.000			
00:00:01	-2.516	70.000			
00:00:01	-2.467	70.000			
00:00:01	-2.545	70.000			
00:00:01	-2.753	70.000			
00:00:01	-2.570	70.000			
00:00:01	-2.719	70.000			
00:00:01	-2.670	70.000			
00:00:01	-2.497	70.000			
00:00:01	-2.634	70.000			
00:00:01	-2.615	70.000			
00:00:01	-2.726	70.000			
00:00:01	-2.704	70.000			
00:00:01	-2.544	70.000			
00:00:01	-2.511	70.000			
00:00:01	-2.117	70.000			
00:00:01	-2.080	70.000			
00:00:01	-2.016	70.000			
00:00:01	-1.788	70.000			
00:00:01	-1.951	70.000			
00:00:01	-1.827	70.000			
00:00:01	-1.766	70.000			
00:00:01	-1.832	70.000			
00:00:01	-1.751	70.000			
00:00:01	-1.823	70.000			
00:00:01	-1.623	70.000			
00:00:01	-1.549	70.000			
00:00:01	-1.620	70.000			
00:00:01	-1.585	70.000			
00:00:01	-1.834	70.000			
00:00:01	-1.868	70.000			
00:00:01	-1.876	70.000			
00:00:01	-2.200	70.000			
00:00:01	-2.080	70.000			
00:00:01	-2.193	70.000			
00:00:01	-1.971	70.000			
00:00:01	-1.655	70.000			
00:00:01	-1.427	70.000			
00:00:01	-0.682	70.000			
00:00:01	-0.076	70.000			
00:00:01	0.888	70.000			
00:00:01	2.358	70.000			
00:00:01	3.727	70.000			
00:00:01	5.557	70.000			
00:00:01	7.130	70.000			
00:00:01	8.672	70.000			
00:00:01	10.514	70.000			
00:00:01	11.610	70.000			
00:00:01	12.727	70.000			
00:00:01	13.522	70.000			
00:00:01	13.922	70.000			
00:00:01	14.453	70.000			
00:00:01	14.467	70.000			
00:00:01	14.446	70.000			
00:00:01	14.217	70.000			
00:00:01	13.541	70.000			
00:00:01	12.956	70.000			
00:00:01	12.019	70.000			
00:00:01	11.158	70.000			
00:00:01	10.436	70.000			
00:00:01	9.450	35.068			
00:00:01	8.874	35.068			
00:00:01	7.930	35.068			
00:00:01	7.077	35.068			
00:00:01	6.383	35.073			
00:00:01	5.439	35.073			
00:00:01	4.784	35.073			
00:00:01	3.805	35.073			
00:00:01	2.812	35.073			
00:00:01	2.150	35.073			
00:00:01	1.379	35.073			
00:00:01	0.791	35.073			
00:00:01	0.054	35.073			
00:00:01	-0.469	35.073			
00:00:01	-0.646	35.073			
00:00:01	-1.045	35.073			
00:00:01	-1.182	35.073			
00:00:01	-1.255	35.073			
00:00:01	-1.337	35.073			
00:00:01	-1.119	35.073			
00:00:01	-1.024	35.073			
00:00:01	-0.713	35.073			
00:00:01	-0.473	35.073			
00:00:01	-0.512	35.073			
00:00:01	-0.311	35.073			
00:00:01	-0.348	35.073			
00:00:01	-0.200	35.073			
00:00:01	-0.021	35.073			
00:00:01	-0.171	35.073			
00:00:01	-0.160	35.073			
00:00:01	-0.272	35.073			
00:00:01	-0.495	35.073			
00:00:01	-0.475	35.073			
00:00:01	-0.797	35.073			
00:00:01	-0.826	35.073			
00:00:01	-0.890	35.073			
00:00:01	-1.078	35.073			
00:00:01	-1.156	35.073			
00:00:01	-1.306	35.073			
00:00:01	-1.390	35.073			
00:00:02	-1.462	35.073			
00:00:02	-1.813	35.073			
00:00:02	-1.904	35.073			
00:00:02	-2.131	35.073			
00:00:02	-2.262	35.073			
00:00:02	-2.285	35.073			
00:00:02	-2.470	35.073			
00:00:02	-2.369	35.073			
00:00:02	-2.531	35.073			
00:00:02	-2.734	35.073			
00:00:02	-2.535	35.073			
00:00:02	-2.697	35.073			
00:00:02	-2.606	35.073			
00:00:02	-2.523	35.073			
00:00:02	-2.530	35.073			
00:00:02	-2.403	35.073			
00:00:02	-2.455	35.073			
00:00:02	-2.462	35.073			
00:00:02	-2.520	35.073			
00:00:02	-2.493	35.073			
00:00:02	-2.132	35.073			
00:00:02	-1.967	35.073			
00:00:02	-1.742	35.073			
00:00:02	-1.434	35.073			
00:00:02	-1.347	35.073			
00:00:02	-1.126	35.073			
00:00:02	-1.231	35.073			
00:00:02	-1.251	35.073			
00:00:02	-1.279	35.073			
00:00:02	-1.461	35.073			
00:00:02	-1.313	35.073			
00:00:02	-1.450	35.073			
00:00:02	-1.713	35.073			
00:00:02	-1.662	35.073			
00:00:02	-1.876	35.073			
00:00:02	-2.031	35.073			
00:00:02	-1.994	35.073			
00:00:02	-2.001	35.073			
00:00:02	-1.897	35.073			
00:00:02	-2.086	35.073			
00:00:02	-1.962	35.073			
00:00:02	-1.726	35.073			
00:00:02	-1.842	35.073			
00:00:02	-1.440	35.073			
00:00:02	-1.068	35.073			
00:00:02	-0.495	35.073			
00:00:02	0.604	35.073			
00:00:02	1.664	35.073			
00:00:02	3.177	35.073			
00:00:02	4.752	35.073			
00:00:02	6.307	35.073			
00:00:02	8.049	35.073			
00:00:02	9.392	35.073			
00:00:02	10.920	35.073			
00:00:02	12.031	35.073			
00:00:02	12.745	35.073			
00:00:02	13.612	35.073			
00:00:02	13.778	35.073			
00:00:02	13.949	35.073			
00:00:02	13.812	35.073			
00:00:02	13.332	35.073			
00:00:02	13.009	35.073			
00:00:02	12.210	35.073			
00:00:02	11.553	35.073			
00:00:02	11.027	35.073			
00:00:02	10.223	35.073			
00:00:02	9.625	35.073			
00:00:02	8.641	35.073			
00:00:02	7.806	72.453			
00:00:02	7.175	72.453			
00:00:02	6.219	72.453			
00:00:02	5.532	72.453			
00:00:02	4.624	72.458			
00:00:02	3.761	72.458			
00:00:02	2.833	72.458			
00:00:02	1.760	72.458			
00:00:02	1.012	72.458			
00:00:02	0.165	72.458			
00:00:02	-0.596	72.458			
00:00:02	-0.948	72.458			
00:00:02	-1.351	72.458			
00:00:02	-1.568	72.458			
00:00:02	-1.834	72.458			
00:00:02	-2.056	72.458			
00:00:02	-1.678	72.458			
00:00:02	-1.506	72.458			
00:00:02	-1.280	72.458			
00:00:02	-0.872	72.458			
00:00:02	-0.741	72.458			
00:00:02	-0.585	72.458			
00:00:02	-0.607	72.458			
00:00:02	-0.417	72.458			
00:00:02	-0.176	72.458			
00:00:02	-0.233	72.458			
00:00:02	-0.173	72.458			
00:00:02	-0.279	72.458			
00:00:02	-0.490	72.458			
00:00:02	-0.496	72.458			
00:00:02	-0.657	72.458			
00:00:02	-0.785	72.458			
00:00:02	-0.846	72.458			
00:00:02	-1.053	72.458			
00:00:02	-1.122	72.458			
00:00:02	-1.538	72.458			
00:00:02	-1.707	72.458			
00:00:02	-1.620	72.458			
00:00:02	-1.891	72.458			
00:00:02	-1.986	72.458			
00:00:02	-2.159	72.458			
00:00:02	-2.369	72.458			
00:00:02	-2.274	72.458			
00:00:02	-2.490	72.458			
00:00:02	-2.555	72.458			
00:00:02	-2.656	72.458			
00:00:02	-2.793	72.458			
00:00:02	-2.673	72.458			
00:00:02	-2.847	72.458			
00:00:02	-2.762	72.458			
00:00:02	-2.902	72.458			
00:00:02	-3.039	72.458			
00:00:02	-2.677	72.458			
00:00:02	-2.756	72.458			
00:00:02	-2.706	72.458			
00:00:02	-2.561	72.458			
00:00:02	-2.699	72.458			
00:00:02	-2.423	72.458			
00:00:02	-2.419	72.458			
00:00:02	-2.358	72.458			
00:00:03	-2.186	72.458			
00:00:03	-2.272	72.458			
00:00:03	-1.892	72.458			
00:00:03	-1.730	72.458			
00:00:03	-1.552	72.458			
00:00:03	-1.269	72.458			
00:00:03	-1.378	72.458			
00:00:03	-1.179	72.458			
00:00:03	-1.159	72.458			
00:00:03	-1.307	72.458			
00:00:03	-1.225	72.458			
00:00:03	-1.522	72.458			
00:00:03	-1.589	72.458			
00:00:03	-1.655	72.458			
00:00:03	-1.794	72.458			
00:00:03	-1.741	72.458			
00:00:03	-1.886	72.458			
00:00:03	-1.778	72.458			
00:00:03	-1.790	72.458			
00:00:03	-1.877	72.458			
00:00:03	-1.411	72.458			
00:00:03	-1.175	72.458			
00:00:03	-0.340	72.458			
00:00:03	0.763	72.458			
00:00:03	1.909	72.458			
00:00:03	3.540	72.458			
00:00:03	5.161	72.458			
00:00:03	6.907	72.458			
00:00:03	8.729	72.458			
00:00:03	10.311	72.458			
00:00:03	11.885	72.458			
00:00:03	12.957	72.458			
00:00:03	13.743	72.458			
00:00:03	14.476	72.458			
00:00:03	14.658	72.458			
00:00:03	14.779	72.458			
00:00:03	14.703	72.458			
00:00:03	14.367	72.458			
00:00:03	14.029	72.458			
00:00:03	13.240	72.458			
00:00:03	12.567	72.458			
00:00:03	11.933	72.458			
00:00:03	11.242	72.458			
00:00:03	10.840	72.458			
00:00:03	10.225	73.143			
00:00:03	9.539	73.143			
00:00:03	9.021	73.143			
00:00:03	8.082	73.143			
00:00:03	7.376	73.148			
00:00:03	6.552	73.148			
00:00:03	5.605	73.148			
00:00:03	4.845	73.148			
00:00:03	3.967	73.148			
00:00:03	3.245	73.148			
00:00:03	2.429	73.148			
00:00:03	1.495	73.148			
00:00:03	0.922	73.148			
00:00:03	0.108	73.148			
00:00:03	-0.310	73.148			
00:00:03	-0.380	73.148			
00:00:03	-0.682	73.148			
00:00:03	-0.621	73.148			
00:00:03	-0.678	73.148			
00:00:03	-0.813	73.148			
00:00:03	-0.701	73.148			
00:00:03	-0.696	73.148			
00:00:03	-0.360	73.148			
00:00:03	-0.171	73.148			
00:00:03	-0.155	73.148			
00:00:03	0.078	73.148			
00:00:03	-0.016	73.148			
00:00:03	0.164	73.148			
00:00:03	0.085	73.148			
00:00:03	-0.304	73.148			
00:00:03	-0.259	73.148			
00:00:03	-0.636	73.148			
00:00:03	-0.694	73.148			
00:00:03	-0.805	73.148			
00:00:03	-1.116	73.148			
00:00:03	-1.212	73.148			
00:00:03	-1.564	73.148			
00:00:03	-1.515	73.148			
00:00:03	-1.512	73.148			
00:00:03	-1.886	73.148			
00:00:03	-1.861	73.148			
00:00:03	-2.138	73.148			
00:00:03	-2.268	73.148			
00:00:03	-2.221	73.148			
00:00:03	-2.230	73.148			
00:00:03	-1.945	73.148			
00:00:03	-2.244	73.148			
00:00:03	-2.446	73.148			
00:00:03	-2.281	73.148			
00:00:03	-2.428	73.148			
00:00:03	-2.443	73.148			
00:00:03	-2.568	73.148			
00:00:03	-2.686	73.148			
00:00:03	-2.646	73.148			
00:00:03	-2.791	73.148			
00:00:03	-2.698	73.148			
00:00:03	-2.685	73.148			
00:00:03	-2.578	73.148			
00:00:03	-2.156	73.148			
00:00:03	-2.045	73.148			
00:00:03	-1.767	73.148			
00:00:03	-1.554	73.148			
00:00:03	-1.638	73.148			
00:00:03	-1.488	73.148			
00:00:03	-1.364	73.148			
00:00:03	-1.173	73.148			
00:00:03	-1.117	73.148			
00:00:03	-1.087	73.148			
00:00:03	-0.815	73.148			
00:00:03	-0.758	73.148			
00:00:03	-0.732	73.148			
00:00:03	-0.586	73.148			
00:00:03	-0.757	73.148			
00:00:03	-0.784	73.148			
00:00:03	-0.905	73.148			
00:00:03	-1.020	73.148			
00:00:03	-0.882	73.148			
00:00:03	-1.133	73.148			
00:00:03	-1.237	73.148			
00:00:03	-1.349	73.148			
00:00:03	-1.661	73.148			
00:00:03	-1.488	73.148			
00:00:03	-1.510	73.148			
00:00:03	-1.311	73.148			
00:00:04	-0.730	73.148			
00:00:04	-0.261	73.148			
00:00:04	0.742	73.148			
00:00:04	1.700	73.148			
00:00:04	3.077	73.148			
00:00:04	4.761	73.148			
00:00:04	6.412	73.148			
00:00:04	8.413	73.148			
00:00:04	10.043	73.148			
00:00:04	11.513	73.148			
00:00:04	12.984	73.148			
00:00:04	13.910	73.148			
00:00:04	14.682	73.148			
00:00:04	14.998	73.148			
00:00:04	14.952	73.148			
00:00:04	15.164	73.148			
00:00:04	14.758	73.148			
00:00:04	14.259	73.148			
00:00:04	13.655	73.148			
00:00:04	12.816	73.148			
00:00:04	12.257	73.148			
00:00:04	11.403	73.148			
00:00:04	10.485	73.148			
00:00:04	9.782	73.148			
00:00:04	8.986	71.776			
00:00:04	8.369	71.776			
00:00:04	7.529	71.776			
00:00:04	6.773	71.776			
00:00:04	6.308	71.781			
00:00:04	5.419	71.781			
00:00:04	4.717	71.781			
00:00:04	3.845	71.781			
00:00:04	2.849	71.781			
00:00:04	2.007	71.781			
00:00:04	1.058	71.781			
00:00:04	0.279	71.781			
00:00:04	-0.266	71.781			
00:00:04	-0.891	71.781			
00:00:04	-1.051	71.781			
00:00:04	-1.436	71.781			
00:00:04	-1.540	71.781			
00:00:04	-1.401	71.781			
00:00:04	-1.419	71.781			
00:00:04	-1.184	71.781			
00:00:04	-1.072	71.781			
00:00:04	-0.859	71.781			
00:00:04	-0.456	71.781			
00:00:04	-0.516	71.781			
00:00:04	-0.118	71.781			
00:00:04	-0.045	71.781			
00:00:04	-0.039	71.781			
00:00:04	0.231	71.781			
00:00:04	0.081	71.781			
00:00:04	0.257	71.781			
00:00:04	0.130	71.781			
00:00:04	-0.098	71.781			
00:00:04	-0.179	71.781			
00:00:04	-0.694	71.781			
00:00:04	-0.742	71.781			
00:00:04	-0.908	71.781			
00:00:04	-1.302	71.781			
00:00:04	-1.417	71.781			
00:00:04	-1.724	71.781			
00:00:04	-1.975	71.781			
00:00:04	-2.133	71.781			
00:00:04	-2.375	71.781			
00:00:04	-2.338	71.781			
00:00:04	-2.609	71.781			
00:00:04	-2.590	71.781			
00:00:04	-2.372	71.781			
00:00:04	-2.407	71.781			
00:00:04	-2.252	71.781			
00:00:04	-2.298	71.781			
00:00:04	-2.334	71.781			
00:00:04	-2.300	71.781			
00:00:04	-2.432	71.781			
00:00:04	-2.260	71.781			
00:00:04	-2.281	71.781			
00:00:04	-2.322	71.781			
00:00:04	-2.179	71.781			
00:00:04	-2.350	71.781			
00:00:04	-2.275	71.781			
00:00:04	-2.082	71.781			
00:00:04	-2.135	71.781			
00:00:04	-1.857	71.781			
00:00:04	-1.836	71.781			
00:00:04	-1.754	71.781			
00:00:04	-1.574	71.781			
00:00:04	-1.628	71.781			
00:00:04	-1.539	71.781			
00:00:04	-1.516	71.781			
00:00:04	-1.633	71.781			
00:00:04	-1.471	71.781			
00:00:04	-1.507	71.781			
00:00:04	-1.349	71.781			
00:00:04	-1.333	71.781			
00:00:04	-1.451	71.781			
00:00:04	-1.221	71.781			
00:00:04	-1.452	71.781			
00:00:04	-1.466	71.781			
00:00:04	-1.558	71.781			
00:00:04	-1.610	71.781			
00:00:04	-1.409	71.781			
00:00:04	-1.717	71.781			
00:00:04	-1.879	71.781			
00:00:04	-1.838	71.781			
00:00:04	-1.955	71.781			
00:00:04	-1.816	71.781			
00:00:04	-1.712	71.781			
00:00:04	-1.336	71.781			
00:00:04	-0.601	71.781			
00:00:04	0.186	71.781			
00:00:04	1.622	71.781			
00:00:04	3.059	71.781			
00:00:04	4.608	71.781			
00:00:04	6.473	71.781			
00:00:04	8.091	71.781			
00:00:04	9.898	71.781			
00:00:04	11.415	71.781			
00:00:04	12.753	71.781			
00:00:04	13.919	71.781			
00:00:04	14.411	71.781			
00:00:04	14.970	71.781			
00:00:04	15.016	71.781			
00:00:04	14.653	71.781			
00:00:04	14.485	71.781			
00:00:04	13.959	71.781			
00:00:04	13.427	71.781			
00:00:05	12.820	71.781			
00:00:05	12.041	71.781			
00:00:05	11.422	71.781			
00:00:05	10.551	71.781			
00:00:05	9.784	70.459			
00:00:05	9.058	70.459			
00:00:05	8.173	70.459			
00:00:05	7.461	70.459			
00:00:05	6.671	70.464			
00:00:05	5.833	70.464			
00:00:05	5.011	70.464			
00:00:05	4.004	70.464			
00:00:05	3.211	70.464			
00:00:05	2.325	70.464			
00:00:05	1.354	70.464			
00:00:05	0.655	70.464			
00:00:05	-0.034	70.464			
00:00:05	-0.609	70.464			
00:00:05	-1.063	70.464			
00:00:05	-1.604	70.464			
00:00:05	-1.617	70.464			
00:00:05	-1.893	70.464			
00:00:05	-2.071	70.464			
00:00:05	-1.975	70.464			
00:00:05	-2.020	70.464			
00:00:05	-1.805	70.464			
00:00:05	-1.592	70.464			
00:00:05	-1.336	70.464			
00:00:05	-0.991	70.464			
00:00:05	-0.907	70.464			
00:00:05	-0.517	70.464			
00:00:05	-0.427	70.464			
00:00:05	-0.596	70.464			
00:00:05	-0.338	70.464			
00:00:05	-0.520	70.464			
00:00:05	-0.498	70.464			
00:00:05	-0.540	70.464			
00:00:05	-0.644	70.464			
00:00:05	-0.557	70.464			
00:00:05	-0.832	70.464			
00:00:05	-0.998	70.464			
00:00:05	-1.151	70.464			
00:00:05	-1.567	70.464			
00:00:05	-1.708	70.464			
00:00:05	-1.950	70.464			
00:00:05	-2.007	70.464			
00:00:05	-2.060	70.464			
00:00:05	-2.524	70.464			
00:00:05	-2.640	70.464			
00:00:05	-2.784	70.464			
00:00:05	-2.681	70.464			
00:00:05	-2.577	70.464			
00:00:05	-2.715	70.464			
00:00:05	-2.749	70.464			
00:00:05	-2.946	70.464			
00:00:05	-2.966	70.464			
00:00:05	-2.774	70.464			
00:00:05	-2.896	70.464			
00:00:05	-2.758	70.464			
00:00:05	-2.710	70.464			
00:00:05	-2.778	70.464			
00:00:05	-2.625	70.464			
00:00:05	-2.662	70.464			
00:00:05	-2.579	70.464			
00:00:05	-2.407	70.464			
00:00:05	-2.461	70.464			
00:00:05	-2.229	70.464			
00:00:05	-2.162	70.464			
00:00:05	-2.221	70.464			
00:00:05	-1.904	70.464			
00:00:05	-1.855	70.464			
00:00:05	-1.621	70.464			
00:00:05	-1.545	70.464			
00:00:05	-1.464	70.464			
00:00:05	-1.224	70.464			
00:00:05	-1.337	70.464			
00:00:05	-1.209	70.464			
00:00:05	-1.026	70.464			
00:00:05	-1.331	70.464			
00:00:05	-1.433	70.464			
00:00:05	-1.792	70.464			
00:00:05	-1.843	70.464			
00:00:05	-1.889	70.464			
00:00:05	-2.164	70.464			
00:00:05	-1.900	70.464			
00:00:05	-2.008	70.464			
00:00:05	-2.037	70.464			
00:00:05	-1.857	70.464			
00:00:05	-2.099	70.464			
00:00:05	-1.976	70.464			
00:00:05	-1.832	70.464			
00:00:05	-1.418	70.464			
00:00:05	-0.638	70.464			
00:00:05	0.160	70.464			
00:00:05	1.664	70.464			
00:00:05	3.185	70.464			
00:00:05	4.874	70.464			
00:00:05	6.961	70.464			
00:00:05	8.658	70.464			
00:00:05	10.453	70.464			
00:00:05	11.914	70.464			
00:00:05	13.118	70.464			
00:00:05	14.316	70.464			
00:00:05	14.781	70.464			
00:00:05	15.196	70.464			
00:00:05	15.187	70.464			
00:00:05	14.834	70.464			
00:00:05	14.512	70.464			
00:00:05	13.757	70.464			
00:00:05	13.180	70.464			
00:00:05	12.506	70.464			
00:00:05	11.517	70.464			
00:00:05	10.785	70.464			
00:00:05	9.879	70.464			
00:00:05	9.265	70.464			
00:00:05	8.646	70.464			
00:00:05	7.817	69.818			
00:00:05	7.329	69.818			
00:00:05	6.590	69.818			
00:00:05	5.835	69.818			
00:00:05	5.047	69.823			
00:00:05	4.104	69.823			
00:00:05	3.166	69.823			
00:00:05	2.176	69.823			
00:00:05	1.295	69.823			
00:00:05	0.661	69.823			
00:00:05	-0.180	69.823			
00:00:05	-0.853	69.823			
00:00:06	-1.306	69.823			
00:00:06	-1.751	69.823			
00:00:06	-1.829	69.823			
00:00:06	-1.980	69.823			
00:00:06	-1.905	69.823			
00:00:06	-1.535	69.823			
00:00:06	-1.385	69.823			
00:00:06	-1.060	69.823			
00:00:06	-0.750	69.823			
00:00:06	-0.453	69.823			
00:00:06	-0.042	69.823			
00:00:06	-0.064	69.823			
00:00:06	0.126	69.823			
00:00:06	0.177	69.823			
00:00:06	-0.020	69.823			
00:00:06	-0.024	69.823			
00:00:06	-0.329	69.823			
00:00:06	-0.348	69.823			
00:00:06	-0.413	69.823			
00:00:06	-0.949	69.823			
00:00:06	-1.122	69.823			
00:00:06	-1.417	69.823			
00:00:06	-1.525	69.823			
00:00:06	-1.524	69.823			
00:00:06	-1.848	69.823			
00:00:06	-1.879	69.823			
00:00:06	-2.163	69.823			
00:00:06	-2.395	69.823			
00:00:06	-2.433	69.823			
00:00:06	-2.800	69.823			
00:00:06	-2.868	69.823			
00:00:06	-2.963	69.823			
00:00:06	-3.141	69.823			
00:00:06	-3.087	69.823			
00:00:06	-3.304	69.823			
00:00:06	-3.243	69.823			
00:00:06	-3.392	69.823			
00:00:06	-3.366	69.823			
00:00:06	-3.091	69.823			
00:00:06	-3.333	69.823			
00:00:06	-3.245	69.823			
00:00:06	-3.134	69.823			
00:00:06	-3.165	69.823			
00:00:06	-3.007	69.823			
00:00:06	-3.027	69.823			
00:00:06	-2.834	69.823			
00:00:06	-2.728	69.823			
00:00:06	-2.781	69.823			
00:00:06	-2.504	69.823			
00:00:06	-2.366	69.823			
00:00:06	-2.302	69.823			
00:00:06	-2.119	69.823			
00:00:06	-2.096	69.823			
00:00:06	-1.884	69.823			
00:00:06	-1.797	69.823			
00:00:06	-1.803	69.823			
00:00:06	-1.744	69.823			
00:00:06	-1.796	69.823			
00:00:06	-1.685	69.823			
00:00:06	-1.755	69.823			
00:00:06	-1.892	69.823			
00:00:06	-1.687	69.823			
00:00:06	-1.787	69.823			
00:00:06	-1.887	69.823			
00:00:06	-1.911	69.823			
00:00:06	-2.207	69.823			
00:00:06	-2.197	69.823			
00:00:06	-2.383	69.823			
00:00:06	-2.378	69.823			
00:00:06	-2.144	69.823			
00:00:06	-2.164	69.823			
00:00:06	-1.708	69.823			
00:00:06	-1.287	69.823			
00:00:06	-0.635	69.823			
00:00:06	0.595	69.823			
00:00:06	1.674	69.823			
00:00:06	3.306	69.823			
00:00:06	5.005	69.823			
00:00:06	6.815	69.823			
00:00:06	8.848	69.823			
00:00:06	10.329	69.823			
00:00:06	11.791	69.823			
00:00:06	12.861	69.823			
00:00:06	13.558	69.823			
00:00:06	14.332	69.823			
00:00:06	14.488	69.823			
00:00:06	14.629	69.823			
00:00:06	14.523	69.823			
00:00:06	13.907	69.823			
00:00:06	13.478	69.823			
00:00:06	12.685	69.823			
00:00:06	11.880	69.823			
00:00:06	11.016	69.823			
00:00:06	10.007	69.823			
00:00:06	9.451	69.823			
00:00:06	8.763	69.823			
00:00:06	8.096	70.459			
00:00:06	7.418	70.459			
00:00:06	6.538	70.459			
00:00:06	5.787	70.459			
00:00:06	4.997	70.464			
00:00:06	4.258	70.464			
00:00:06	3.664	70.464			
00:00:06	2.478	70.464			
00:00:06	1.407	70.464			
00:00:06	0.448	70.464			
00:00:06	-0.490	70.464			
00:00:06	-0.851	70.464			
00:00:06	-1.293	70.464			
00:00:06	-1.617	70.464			
00:00:06	-1.589	70.464			
00:00:06	-1.704	70.464			
00:00:06	-1.521	70.464			
00:00:06	-1.363	70.464			
00:00:06	-1.176	70.464			
00:00:06	-0.804	70.464			
00:00:06	-0.662	70.464			
00:00:06	-0.230	70.464			
00:00:06	0.111	70.464			
00:00:06	0.334	70.464			
00:00:06	0.727	70.464			
00:00:06	0.514	70.464			
00:00:06	0.591	70.464			
00:00:06	0.636	70.464			
00:00:06	0.337	70.464			
00:00:06	0.362	70.464			
00:00:06	0.012	70.464			
00:00:06	-0.247	70.464			
00:00:07	-0.579	70.464			
00:00:07	-0.834	70.464			
00:00:07	-0.653	70.464			
00:00:07	-0.904	70.464			
00:00:07	-0.963	70.464			
00:00:07	-1.145	70.464			
00:00:07	-1.438	70.464			
00:00:07	-1.395	70.464			
00:00:07	-1.573	70.464			
00:00:07	-1.899	70.464			
00:00:07	-2.059	70.464			
00:00:07	-2.340	70.464			
00:00:07	-2.227	70.464			
00:00:07	-2.284	70.464			
00:00:07	-2.436	70.464			
00:00:07	-2.501	70.464			
00:00:07	-2.671	70.464			
00:00:07	-2.572	70.464			
00:00:07	-2.485	70.464			
00:00:07	-2.403	70.464			
00:00:07	-2.065	70.464			
00:00:07	-2.189	70.464			
00:00:07	-2.332	70.464			
00:00:07	-2.399	70.464			
00:00:07	-2.516	70.464			
00:00:07	-2.306	70.464			
00:00:07	-2.213	70.464			
00:00:07	-2.059	70.464			
00:00:07	-1.621	70.464			
00:00:07	-1.388	70.464			
00:00:07	-0.957	70.464			
00:00:07	-0.811	70.464			
00:00:07	-0.914	70.464			
00:00:07	-0.810	70.464			
00:00:07	-1.163	70.464			
00:00:07	-1.100	70.464			
00:00:07	-1.111	70.464			
00:00:07	-1.346	70.464			
00:00:07	-1.291	70.464			
00:00:07	-1.407	70.464			
00:00:07	-1.165	70.464			
00:00:07	-1.154	70.464			
00:00:07	-1.423	70.464			
00:00:07	-1.331	70.464			
00:00:07	-1.633	70.464			
00:00:07	-1.571	70.464			
00:00:07	-1.262	70.464			
00:00:07	-1.301	70.464			
00:00:07	-0.920	70.464			
00:00:07	-0.514	70.464			
00:00:07	0.239	70.464			
00:00:07	1.286	70.464			
00:00:07	2.572	70.464			
00:00:07	4.385	70.464			
00:00:07	6.121	70.464			
00:00:07	8.033	70.464			
00:00:07	10.121	70.464			
00:00:07	11.545	70.464			
00:00:07	12.897	70.464			
00:00:07	14.071	70.464			
00:00:07	14.815	70.464			
00:00:07	15.458	70.464			
00:00:07	15.563	70.464			
00:00:07	15.551	70.464			
00:00:07	15.272	70.464			
00:00:07	14.703	70.464			
00:00:07	14.163	70.464			
00:00:07	13.330	70.464			
00:00:07	12.688	70.464			
00:00:07	12.075	70.464			
00:00:07	11.051	70.464			
00:00:07	10.236	70.464			
00:00:07	9.271	73.846			
00:00:07	8.476	73.846			
00:00:07	7.990	73.846			
00:00:07	7.265	73.846			
00:00:07	6.640	73.851			
00:00:07	5.795	73.851			
00:00:07	4.824	73.851			
00:00:07	4.061	73.851			
00:00:07	3.063	73.851			
00:00:07	2.247	73.851			
00:00:07	1.340	73.851			
00:00:07	0.457	73.851			
00:00:07	0.043	73.851			
00:00:07	-0.586	73.851			
00:00:07	-0.832	73.851			
00:00:07	-0.958	73.851			
00:00:07	-1.222	73.851			
00:00:07	-1.202	73.851			
00:00:07	-1.369	73.851			
00:00:07	-1.289	73.851			
00:00:07	-1.073	73.851			
00:00:07	-0.951	73.851			
00:00:07	-0.624	73.851			
00:00:07	-0.462	73.851			
00:00:07	-0.350	73.851			
00:00:07	-0.074	73.851			
00:00:07	-0.105	73.851			
00:00:07	-0.011	73.851			
00:00:07	-0.032	73.851			
00:00:07	-0.253	73.851			
00:00:07	-0.247	73.851			
00:00:07	-0.161	73.851			
00:00:07	-0.181	73.851			
00:00:07	-0.311	73.851			
00:00:07	-0.612	73.851			
00:00:07	-0.587	73.851			
00:00:07	-0.855	73.851			
00:00:07	-1.138	73.851			
00:00:07	-1.189	73.851			
00:00:07	-1.486	73.851			
00:00:07	-1.496	73.851			
00:00:07	-1.661	73.851			
00:00:07	-1.721	73.851			
00:00:07	-1.727	73.851			
00:00:07	-2.046	73.851			
00:00:07	-1.919	73.851			
00:00:07	-1.817	73.851			
00:00:07	-1.958	73.851			
00:00:07	-1.944	73.851			
00:00:07	-2.331	73.851			
00:00:07	-2.362	73.851			
00:00:07	-2.399	73.851			
00:00:07	-2.546	73.851			
00:00:07	-2.510	73.851			
00:00:07	-2.681	73.851			
00:00:07	-2.672	73.851			
00:00:08	-2.596	73.851			
00:00:08	-2.539	73.851			
00:00:08	-2.271	73.851			
00:00:08	-2.167	73.851			
00:00:08	-2.118	73.851			
00:00:08	-1.997	73.851			
00:00:08	-1.969	73.851			
00:00:08	-1.723	73.851			
00:00:08	-1.670	73.851			
00:00:08	-1.702	73.851			
00:00:08	-1.467	73.851			
00:00:08	-1.649	73.851			
00:00:08	-1.717	73.851			
00:00:08	-1.521	73.851			
00:00:08	-1.560	73.851			
00:00:08	-1.380	73.851			
00:00:08	-1.360	73.851			
00:00:08	-1.487	73.851			
00:00:08	-1.436	73.851			
00:00:08	-1.627	73.851			
00:00:08	-1.480	73.851			
00:00:08	-1.613	73.851			
00:00:08	-1.745	73.851			
00:00:08	-1.779	73.851			
00:00:08	-1.871	73.851			
00:00:08	-1.536	73.851			
00:00:08	-1.267	73.851			
00:00:08	-0.995	73.851			
00:00:08	-0.302	73.851			
00:00:08	0.509	73.851			
00:00:08	1.911	73.851			
00:00:08	3.407	73.851			
00:00:08	4.999	73.851			
00:00:08	6.807	73.851			
00:00:08	8.455	73.851			
00:00:08	10.153	73.851			
00:00:08	11.717	73.851			
00:00:08	12.928	73.851			
00:00:08	14.002	73.851			
00:00:08	14.664	73.851			
00:00:08	15.022	73.851			
00:00:08	15.238	73.851			
00:00:08	15.092	73.851			
00:00:08	14.864	73.851			
00:00:08	14.345	73.851			
00:00:08	13.677	73.851			
00:00:08	13.057	73.851			
00:00:08	12.163	73.851			
00:00:08	11.461	73.851			
00:00:08	10.747	73.851			
00:00:08	9.967	73.851			
00:00:08	9.297	73.851			
00:00:08	8.408	71.776			
00:00:08	7.832	71.776			
00:00:08	7.201	71.776			
00:00:08	6.291	71.776			
00:00:08	5.710	71.781			
00:00:08	4.720	71.781			
00:00:08	3.844	71.781			
00:00:08	3.003	71.781			
00:00:08	2.003	71.781			
00:00:08	1.269	71.781			
00:00:08	0.396	71.781			
00:00:08	-0.140	71.781			
00:00:08	-0.643	71.781			
00:00:08	-1.284	71.781			
00:00:08	-1.460	71.781			
00:00:08	-1.615	71.781			
00:00:08	-1.634	71.781			
00:00:08	-1.508	71.781			
00:00:08	-1.415	71.781			
00:00:08	-1.105	71.781			
00:00:08	-1.055	71.781			
00:00:08	-1.060	71.781			
00:00:08	-0.877	71.781			
00:00:08	-0.874	71.781			
00:00:08	-0.705	71.781			
00:00:08	-0.453	71.781			
00:00:08	-0.453	71.781			
00:00:08	-0.306	71.781			
00:00:08	-0.290	71.781			
00:00:08	-0.414	71.781			
00:00:08	-0.530	71.781			
00:00:08	-0.754	71.781			
00:00:08	-0.712	71.781			
00:00:08	-1.018	71.781			
00:00:08	-1.268	71.781			
00:00:08	-1.427	71.781			
00:00:08	-1.923	71.781			
00:00:08	-2.015	71.781			
00:00:08	-2.292	71.781			
00:00:08	-2.550	71.781			
00:00:08	-2.674	71.781			
00:00:08	-2.905	71.781			
00:00:08	-2.803	71.781			
00:00:08	-2.941	71.781			
00:00:08	-3.016	71.781			
00:00:08	-3.042	71.781			
00:00:08	-3.254	71.781			
00:00:08	-3.357	71.781			
00:00:08	-3.501	71.781			
00:00:08	-3.630	71.781			
00:00:08	-3.659	71.781			
00:00:08	-3.785	71.781			
00:00:08	-3.734	71.781			
00:00:08	-3.628	71.781			
00:00:08	-3.756	71.781			
00:00:08	-3.637	71.781			
00:00:08	-3.702	71.781			
00:00:08	-3.831	71.781			
00:00:08	-3.677	71.781			
00:00:08	-3.604	71.781			
00:00:08	-3.358	71.781			
00:00:08	-3.231	71.781			
00:00:08	-3.186	71.781			
00:00:08	-2.946	71.781			
00:00:08	-2.891	71.781			
00:00:08	-2.485	71.781			
00:00:08	-2.258	71.781			
00:00:08	-2.146	71.781			
00:00:08	-1.863	71.781			
00:00:08	-1.974	71.781			
00:00:08	-1.899	71.781			
00:00:08	-1.760	71.781			
00:00:08	-1.855	71.781			
00:00:08	-1.661	71.781			
00:00:08	-1.846	71.781			
00:00:08	-1.858	71.781			
00:00:09	-2.019	71.781			
00:00:09	-2.392	71.781			
00:00:09	-2.509	71.781			
00:00:09	-2.738	71.781			
00:00:09	-2.684	71.781			
00:00:09	-2.421	71.781			
00:00:09	-2.167	71.781			
00:00:09	-1.528	71.781			
00:00:09	-0.765	71.781			
00:00:09	0.469	71.781			
00:00:09	2.239	71.781			
00:00:09	3.894	71.781			
00:00:09	5.803	71.781			
00:00:09	7.675	71.781			
00:00:09	9.214	71.781			
00:00:09	10.855	71.781			
00:00:09	12.076	71.781			
00:00:09	13.175	71.781			
00:00:09	14.064	71.781			
00:00:09	14.401	71.781			
00:00:09	14.690	71.781			
00:00:09	14.469	71.781			
00:00:09	14.180	71.781			
00:00:09	13.821	71.781			
00:00:09	13.015	71.781			
00:00:09	12.328	71.781			
00:00:09	11.516	71.781			
00:00:09	10.617	71.781			
00:00:09	9.842	71.776			
00:00:09	8.954	71.776			
00:00:09	8.400	71.776			
00:00:09	7.682	71.776			
00:00:09	6.915	71.781			
00:00:09	6.198	71.781			
00:00:09	5.200	71.781			
00:00:09	4.482	71.781			
00:00:09	3.489	71.781			
00:00:09	2.565	71.781			
00:00:09	1.752	71.781			
00:00:09	0.814	71.781			
00:00:09	0.073	71.781			
00:00:09	-0.522	71.781			
00:00:09	-1.107	71.781			
00:00:09	-1.173	71.781			
00:00:09	-1.274	71.781			
00:00:09	-1.131	71.781			
00:00:09	-0.704	71.781			
00:00:09	-0.458	71.781			
00:00:09	0.076	71.781			
00:00:09	0.466	71.781			
00:00:09	0.751	71.781			
00:00:09	1.243	71.781			
00:00:09	1.566	71.781			
00:00:09	2.099	71.781			
00:00:09	2.365	71.781			
00:00:09	2.560	71.781			
00:00:09	2.767	71.781			
00:00:09	2.556	71.781			
00:00:09	2.549	71.781			
00:00:09	2.398	71.781			
00:00:09	2.121	71.781			
00:00:09	2.007	71.781			
00:00:09	1.602	71.781			
00:00:09	1.229	71.781			
00:00:09	0.758	71.781			
00:00:09	0.268	71.781			
00:00:09	0.214	71.781			
00:00:09	-0.111	71.781			
00:00:09	-0.291	71.781			
00:00:09	-0.326	71.781			
00:00:09	-0.717	71.781			
00:00:09	-0.897	71.781			
00:00:09	-1.201	71.781			
00:00:09	-1.502	71.781			
00:00:09	-1.556	71.781			
00:00:09	-1.670	71.781			
00:00:09	-1.681	71.781			
00:00:09	-1.727	71.781			
00:00:09	-1.843	71.781			
00:00:09	-1.743	71.781			
00:00:09	-1.876	71.781			
00:00:09	-1.764	71.781			
00:00:09	-1.548	71.781			
00:00:09	-1.522	71.781			
00:00:09	-1.256	71.781			
00:00:09	-1.312	71.781			
00:00:09	-1.133	71.781			
00:00:09	-0.947	71.781			
00:00:09	-1.103	71.781			
00:00:09	-0.950	71.781			
00:00:09	-0.930	71.781			
00:00:09	-0.832	71.781			
00:00:09	-0.686	71.781			
00:00:09	-0.810	71.781			
00:00:09	-0.687	71.781			
00:00:09	-0.726	71.781			
00:00:09	-0.733	71.781			
00:00:09	-0.675	71.781			
00:00:09	-0.898	71.781			
00:00:09	-0.962	71.781			
00:00:09	-1.088	71.781			
00:00:09	-1.167	71.781			
00:00:09	-1.134	71.781			
00:00:09	-1.273	71.781			
00:00:09	-1.209	71.781			
00:00:09	-1.063	71.781			
00:00:09	-0.915	71.781			
00:00:09	-0.316	71.781			
00:00:09	0.432	71.781			
00:00:09	1.423	71.781			
00:00:09	2.782	71.781			
00:00:09	4.188	71.781			
00:00:09	5.779	71.781			
00:00:09	7.334	71.781			
00:00:09	8.911	71.781			
00:00:09	10.548	71.781			
00:00:09	11.596	71.781			
00:00:09	12.653	71.781			
00:00:09	13.434	71.781			
00:00:09	13.817	71.781			
00:00:09	14.194	71.781			
00:00:09	13.948	71.781			
00:00:09	13.837	71.781			
00:00:09	13.525	71.781			
00:00:09	12.863	71.781			
00:00:09	12.264	71.781			
00:00:09	11.317	71.781			
00:00:09	10.556	71.781			
00:00:10	9.845	76.800			
00:00:10	9.019	76.800			
00:00:10	8.511	76.800			
00:00:10	7.658	76.800			
00:00:10	6.984	76.805			
00:00:10	6.324	76.805			
00:00:10	5.538	76.805			
00:00:10	4.856	76.805			
00:00:10	3.996	76.805			
00:00:10	3.382	76.805			
00:00:10	2.651	76.805			
00:00:10	1.696	76.805			
00:00:10	0.919	76.805			
00:00:10	0.297	76.805			
00:00:10	-0.250	76.805			
00:00:10	-0.582	76.805			
00:00:10	-1.008	76.805			
00:00:10	-1.198	76.805			
00:00:10	-1.320	76.805			
00:00:10	-1.355	76.805			
00:00:10	-1.154	76.805			
00:00:10	-1.200	76.805			
00:00:10	-1.081	76.805			
00:00:10	-0.790	76.805			
00:00:10	-0.677	76.805			
00:00:10	-0.280	76.805			
00:00:10	-0.204	76.805			
00:00:10	-0.122	76.805			
00:00:10	0.068	76.805			
00:00:10	-0.121	76.805			
00:00:10	-0.010	76.805			
00:00:10	-0.144	76.805			
00:00:10	-0.190	76.805			
00:00:10	-0.060	76.805			
00:00:10	-0.286	76.805			
00:00:10	-0.437	76.805			
00:00:10	-0.622	76.805			
00:00:10	-0.857	76.805			
00:00:10	-0.992	76.805			
00:00:10	-1.319	76.805			
00:00:10	-1.529	76.805			
00:00:10	-1.731	76.805			
00:00:10	-1.850	76.805			
00:00:10	-1.838	76.805			
00:00:10	-2.133	76.805			
00:00:10	-2.309	76.805			
00:00:10	-2.250	76.805			
00:00:10	-2.347	76.805			
00:00:10	-2.330	76.805			
00:00:10	-2.454	76.805			
00:00:10	-2.510	76.805			
00:00:10	-2.379	76.805			
00:00:10	-2.448	76.805			
00:00:10	-2.332	76.805			
00:00:10	-2.181	76.805			
00:00:10	-2.164	76.805			
00:00:10	-2.012	76.805			
00:00:10	-2.166	76.805			
00:00:10	-2.069	76.805			
00:00:10	-1.999	76.805			
00:00:10	-2.112	76.805			
00:00:10	-1.892	76.805			
00:00:10	-1.955	76.805			
00:00:10	-1.868	76.805			
00:00:10	-1.728	76.805			
00:00:10	-1.774	76.805			
00:00:10	-1.528	76.805			
00:00:10	-1.540	76.805			
00:00:10	-1.443	76.805			
00:00:10	-1.328	76.805			
00:00:10	-1.513	76.805			
00:00:10	-1.474	76.805			
00:00:10	-1.653	76.805			
00:00:10	-1.627	76.805			
00:00:10	-1.517	76.805			
00:00:10	-1.388	76.805			
00:00:10	-0.969	76.805			
00:00:10	-0.346	76.805			
00:00:10	0.422	76.805			
00:00:10	1.750	76.805			
00:00:10	3.137	76.805			
00:00:10	4.826	76.805			
00:00:10	6.670	76.805			
00:00:10	8.284	76.805			
00:00:10	10.158	76.805			
00:00:10	11.755	76.805			
00:00:10	13.237	76.805			
00:00:10	14.490	76.805			
00:00:10	15.178	76.805			
00:00:10	15.717	76.805			
00:00:10	15.947	76.805			
00:00:10	16.066	76.805			
00:00:10	15.786	76.805			
00:00:10	15.082	76.805			
00:00:10	14.568	76.805			
00:00:10	13.843	76.805			
00:00:10	13.134	76.805			
00:00:10	12.526	76.805			
00:00:10	11.594	76.805			
00:00:10	11.002	76.805			
00:00:10	10.213	78.367			
00:00:10	9.471	78.367			
00:00:10	8.947	78.367			
00:00:10	8.142	78.367			
00:00:10	7.454	78.372			
00:00:10	6.601	78.372			
00:00:10	5.651	78.372			
00:00:10	4.870	78.372			
00:00:10	3.848	78.372			
00:00:10	2.839	78.372			
00:00:10	2.012	78.372			
00:00:10	1.228	78.372			
00:00:10	0.806	78.372			
00:00:10	0.193	78.372			
00:00:10	-0.479	78.372			
00:00:10	-0.674	78.372			
00:00:10	-0.924	78.372			
00:00:10	-1.000	78.372			
00:00:10	-0.936	78.372			
00:00:10	-0.964	78.372			
00:00:10	-0.817	78.372			
00:00:10	-0.817	78.372			
00:00:10	-0.604	78.372			
00:00:10	-0.351	78.372			
00:00:10	-0.387	78.372			
00:00:10	-0.113	78.372			
00:00:10	-0.331	78.372			
00:00:10	-0.317	78.372			
00:00:11	-0.237	78.372			
00:00:11	-0.217	78.372			
00:00:11	-0.165	78.372			
00:00:11	-0.475	78.372			
00:00:11	-0.622	78.372			
00:00:11	-0.810	78.372			
00:00:11	-1.203	78.372			
00:00:11	-1.409	78.372			
00:00:11	-1.720	78.372			
00:00:11	-1.875	78.372			
00:00:11	-1.914	78.372			
00:00:11	-2.030	78.372			
00:00:11	-2.001	78.372			
00:00:11	-2.101	78.372			
00:00:11	-2.289	78.372			
00:00:11	-2.176	78.372			
00:00:11	-2.269	78.372			
00:00:11	-2.297	78.372			
00:00:11	-2.353	78.372			
00:00:11	-2.598	78.372			
00:00:11	-2.551	78.372			
00:00:11	-2.702	78.372			
00:00:11	-2.596	78.372			
00:00:11	-2.468	78.372			
00:00:11	-2.490	78.372			
00:00:11	-2.293	78.372			
00:00:11	-2.338	78.372			
00:00:11	-2.305	78.372			
00:00:11	-2.287	78.372			
00:00:11	-2.348	78.372			
00:00:11	-2.129	78.372			
00:00:11	-1.976	78.372			
00:00:11	-1.931	78.372			
00:00:11	-1.744	78.372			
00:00:11	-1.673	78.372			
00:00:11	-1.368	78.372			
00:00:11	-1.380	78.372			
00:00:11	-1.472	78.372			
00:00:11	-1.449	78.372			
00:00:11	-1.581	78.372			
00:00:11	-1.664	78.372			
00:00:11	-1.755	78.372			
00:00:11	-2.025	78.372			
00:00:11	-1.968	78.372			
00:00:11	-1.997	78.372			
00:00:11	-1.925	78.372			
00:00:11	-1.812	78.372			
00:00:11	-1.617	78.372			
00:00:11	-0.899	78.372			
00:00:11	-0.209	78.372			
00:00:11	0.869	78.372			
00:00:11	2.457	78.372			
00:00:11	3.947	78.372			
00:00:11	5.810	78.372			
00:00:11	7.569	78.372			
00:00:11	9.293	78.372			
00:00:11	11.127	78.372			
00:00:11	12.492	78.372			
00:00:11	13.847	78.372			
00:00:11	14.744	78.372			
00:00:11	15.368	78.372			
00:00:11	15.899	78.372			
00:00:11	15.821	78.372			
00:00:11	15.743	78.372			
00:00:11	15.418	78.372			
00:00:11	14.907	78.372			
00:00:11	14.502	78.372			
00:00:11	13.928	78.372			
00:00:11	13.264	78.372			
00:00:11	12.426	78.372			
00:00:11	11.432	78.372			
00:00:11	10.756	78.372			
00:00:11	10.011	76.800			
00:00:11	9.179	76.800			
00:00:11	8.622	76.800			
00:00:11	7.786	76.800			
00:00:11	6.990	76.805			
00:00:11	6.195	76.805			
00:00:11	5.320	76.805			
00:00:11	4.729	76.805			
00:00:11	3.757	76.805			
00:00:11	3.024	76.805			
00:00:11	2.091	76.805			
00:00:11	1.180	76.805			
00:00:11	0.566	76.805			
00:00:11	-0.226	76.805			
00:00:11	-0.748	76.805			
00:00:11	-1.066	76.805			
00:00:11	-1.406	76.805			
00:00:11	-1.384	76.805			
00:00:11	-1.439	76.805			
00:00:11	-1.318	76.805			
00:00:11	-1.033	76.805			
00:00:11	-0.831	76.805			
00:00:11	-0.479	76.805			
00:00:11	-0.407	76.805			
00:00:11	-0.338	76.805			
00:00:11	-0.031	76.805			
00:00:11	-0.068	76.805			
00:00:11	-0.033	76.805			
00:00:11	-0.038	76.805			
00:00:11	-0.195	76.805			
00:00:11	-0.120	76.805			
00:00:11	-0.289	76.805			
00:00:11	-0.390	76.805			
00:00:11	-0.660	76.805			
00:00:11	-1.068	76.805			
00:00:11	-1.150	76.805			
00:00:11	-1.568	76.805			
00:00:11	-1.823	76.805			
00:00:11	-1.956	76.805			
00:00:11	-2.119	76.805			
00:00:11	-2.029	76.805			
00:00:11	-2.172	76.805			
00:00:11	-2.232	76.805			
00:00:11	-2.181	76.805			
00:00:11	-2.224	76.805			
00:00:11	-2.097	76.805			
00:00:11	-2.218	76.805			
00:00:11	-2.313	76.805			
00:00:11	-2.292	76.805			
00:00:11	-2.471	76.805			
00:00:11	-2.577	76.805			
00:00:11	-2.750	76.805			
00:00:11	-2.867	76.805			
00:00:11	-2.685	76.805			
00:00:11	-2.835	76.805			
00:00:11	-2.689	76.805			
00:00:12	-2.347	76.805			
00:00:12	-2.301	76.805			
00:00:12	-2.010	76.805			
00:00:12	-1.924	76.805			
00:00:12	-1.822	76.805			
00:00:12	-1.676	76.805			
00:00:12	-1.643	76.805			
00:00:12	-1.235	76.805			
00:00:12	-1.278	76.805			
00:00:12	-1.285	76.805			
00:00:12	-1.114	76.805			
00:00:12	-1.314	76.805			
00:00:12	-1.177	76.805			
00:00:12	-1.354	76.805			
00:00:12	-1.460	76.805			
00:00:12	-1.413	76.805			
00:00:12	-1.558	76.805			
00:00:12	-1.506	76.805			
00:00:12	-1.496	76.805			
00:00:12	-1.647	76.805			
00:00:12	-1.577	76.805			
00:00:12	-1.536	76.805			
00:00:12	-1.116	76.805			
00:00:12	-0.514	76.805			
00:00:12	0.296	76.805			
00:00:12	1.685	76.805			
00:00:12	3.261	76.805			
00:00:12	4.990	76.805			
00:00:12	6.927	76.805			
00:00:12	8.557	76.805			
00:00:12	10.506	76.805			
00:00:12	12.207	76.805			
00:00:12	13.585	76.805			
00:00:12	15.018	76.805			
00:00:12	15.759	76.805			
00:00:12	16.274	76.805			
00:00:12	16.449	76.805			
00:00:12	16.393	76.805			
00:00:12	16.172	76.805			
00:00:12	15.378	76.805			
00:00:12	14.864	76.805			
00:00:12	14.154	76.805			
00:00:12	13.319	76.805			
00:00:12	12.593	76.805			
00:00:12	11.639	75.294			
00:00:12	10.911	75.294			
00:00:12	10.035	75.294			
00:00:12	9.215	75.294			
00:00:12	8.570	75.299			
00:00:12	7.668	75.299			
00:00:12	6.796	75.299			
00:00:12	5.983	75.299			
00:00:12	5.031	75.299			
00:00:12	4.285	75.299			
00:00:12	3.422	75.299			
00:00:12	2.341	75.299			
00:00:12	1.607	75.299			
00:00:12	0.883	75.299			
00:00:12	0.402	75.299			
00:00:12	-0.274	75.299			
00:00:12	-0.839	75.299			
00:00:12	-0.950	75.299			
00:00:12	-1.277	75.299			
00:00:12	-1.238	75.299			
00:00:12	-1.012	75.299			
00:00:12	-0.982	75.299			
00:00:12	-0.677	75.299			
00:00:12	-0.509	75.299			
00:00:12	-0.368	75.299			
00:00:12	-0.288	75.299			
00:00:12	-0.377	75.299			
00:00:12	-0.131	75.299			
00:00:12	-0.351	75.299			
00:00:12	-0.389	75.299			
00:00:12	-0.314	75.299			
00:00:12	-0.346	75.299			
00:00:12	-0.305	75.299			
00:00:12	-0.402	75.299			
00:00:12	-0.592	75.299			
00:00:12	-0.725	75.299			
00:00:12	-1.057	75.299			
00:00:12	-1.151	75.299			
00:00:12	-1.332	75.299			
00:00:12	-1.549	75.299			
00:00:12	-1.676	75.299			
00:00:12	-2.043	75.299			
00:00:12	-2.213	75.299			
00:00:12	-2.265	75.299			
00:00:12	-2.487	75.299			
00:00:12	-2.573	75.299			
00:00:12	-2.656	75.299			
00:00:12	-2.719	75.299			
00:00:12	-2.752	75.299			
00:00:12	-2.836	75.299			
00:00:12	-2.694	75.299			
00:00:12	-2.755	75.299			
00:00:12	-2.609	75.299			
00:00:12	-2.361	75.299			
00:00:12	-2.684	75.299			
00:00:12	-2.638	75.299			
00:00:12	-2.572	75.299			
00:00:12	-2.492	75.299			
00:00:12	-2.145	75.299			
00:00:12	-2.007	75.299			
00:00:12	-1.703	75.299			
00:00:12	-1.675	75.299			
00:00:12	-1.728	75.299			
00:00:12	-1.670	75.299			
00:00:12	-1.710	75.299			
00:00:12	-1.648	75.299			
00:00:12	-1.554	75.299			
00:00:12	-1.481	75.299			
00:00:12	-1.242	75.299			
00:00:12	-1.158	75.299			
00:00:12	-1.289	75.299			
00:00:12	-1.267	75.299			
00:00:12	-1.447	75.299			
00:00:12	-1.458	75.299			
00:00:12	-1.630	75.299			
00:00:12	-1.660	75.299			
00:00:12	-1.516	75.299			
00:00:12	-1.730	75.299			
00:00:12	-1.553	75.299			
00:00:12	-1.329	75.299			
00:00:12	-1.019	75.299			
00:00:12	-0.262	75.299			
00:00:12	0.593	75.299			
00:00:12	1.998	75.299			
00:00:13	3.504	75.299			
00:00:13	5.016	75.299			
00:00:13	7.092	75.299			
00:00:13	8.930	75.299			
00:00:13	10.921	75.299			
00:00:13	12.677	75.299			
00:00:13	13.963	75.299			
00:00:13	15.137	75.299			
00:00:13	15.752	75.299			
00:00:13	16.303	75.299			
00:00:13	16.645	75.299			
00:00:13	16.355	75.299			
00:00:13	16.021	75.299			
00:00:13	15.430	75.299			
00:00:13	14.849	75.299			
00:00:13	14.359	75.299			
00:00:13	13.478	75.299			
00:00:13	12.702	75.299			
00:00:13	11.826	75.299			
00:00:13	10.831	75.299			
00:00:13	10.165	75.294			
00:00:13	9.284	75.294			
00:00:13	8.359	75.294			
00:00:13	7.519	75.294			
00:00:13	6.512	75.299			
00:00:13	5.880	75.299			
00:00:13	4.976	75.299			
00:00:13	4.014	75.299			
00:00:13	3.136	75.299			
00:00:13	2.287	75.299			
00:00:13	1.742	75.299			
00:00:13	0.819	75.299			
00:00:13	0.182	75.299			
00:00:13	-0.190	75.299			
00:00:13	-0.675	75.299			
00:00:13	-0.823	75.299			
00:00:13	-0.984	75.299			
00:00:13	-0.889	75.299			
00:00:13	-0.752	75.299			
00:00:13	-0.878	75.299			
00:00:13	-0.643	75.299			
00:00:13	-0.410	75.299			
00:00:13	-0.301	75.299			
00:00:13	-0.044	75.299			
00:00:13	0.153	75.299			
00:00:13	0.340	75.299			
00:00:13	0.292	75.299			
00:00:13	0.160	75.299			
00:00:13	0.160	75.299			
00:00:13	0.102	75.299			
00:00:13	-0.032	75.299			
00:00:13	-0.255	75.299			
00:00:13	-0.429	75.299			
00:00:13	-0.498	75.299			
00:00:13	-0.633	75.299			
00:00:13	-0.880	75.299			
00:00:13	-0.867	75.299			
00:00:13	-1.144	75.299			
00:00:13	-1.218	75.299			
00:00:13	-1.324	75.299			
00:00:13	-1.548	75.299			
00:00:13	-1.468	75.299			
00:00:13	-1.769	75.299			
00:00:13	-1.833	75.299			
00:00:13	-2.050	75.299			
00:00:13	-2.316	75.299			
00:00:13	-2.326	75.299			
00:00:13	-2.571	75.299			
00:00:13	-2.459	75.299			
00:00:13	-2.277	75.299			
00:00:13	-2.342	75.299			
00:00:13	-2.448	75.299			
00:00:13	-2.683	75.299			
00:00:13	-2.572	75.299			
00:00:13	-2.488	75.299			
00:00:13	-2.415	75.299			
00:00:13	-1.991	75.299			
00:00:13	-1.877	75.299			
00:00:13	-1.780	75.299			
00:00:13	-1.512	75.299			
00:00:13	-1.487	75.299			
00:00:13	-1.395	75.299			
00:00:13	-1.364	75.299			
00:00:13	-1.335	75.299			
00:00:13	-1.155	75.299			
00:00:13	-1.247	75.299			
00:00:13	-1.290	75.299			
00:00:13	-1.292	75.299			
00:00:13	-1.537	75.299			
00:00:13	-1.399	75.299			
00:00:13	-1.410	75.299			
00:00:13	-1.311	75.299			
00:00:13	-1.253	75.299			
00:00:13	-1.514	75.299			
00:00:13	-1.488	75.299			
00:00:13	-1.635	75.299			
00:00:13	-1.631	75.299			
00:00:13	-1.520	75.299			
00:00:13	-1.517	75.299			
00:00:13	-1.088	75.299			
00:00:13	-0.703	75.299			
00:00:13	0.025	75.299			
00:00:13	1.169	75.299			
00:00:13	2.494	75.299			
00:00:13	3.955	75.299			
00:00:13	5.636	75.299			
00:00:13	7.483	75.299			
00:00:13	9.512	75.299			
00:00:13	11.136	75.299			
00:00:13	12.681	75.299			
00:00:13	14.112	75.299			
00:00:13	14.918	75.299			
00:00:13	15.544	75.299			
00:00:13	15.784	75.299			
00:00:13	15.908	75.299			
00:00:13	15.953	75.299			
00:00:13	15.548	75.299			
00:00:13	15.107	75.299			
00:00:13	14.417	75.299			
00:00:13	13.645	75.299			
00:00:13	12.845	75.299			
00:00:13	11.770	75.299			
00:00:13	11.099	75.299			
00:00:13	10.205	75.299			
00:00:13	9.253	73.846			
00:00:13	8.449	73.846			
00:00:13	7.396	73.846			
00:00:13	6.496	73.846			
00:00:14	5.549	73.851			
00:00:14	4.619	73.851			
00:00:14	3.884	73.851			
00:00:14	2.999	73.851			
00:00:14	2.245	73.851			
00:00:14	1.405	73.851			
00:00:14	0.624	73.851			
00:00:14	0.280	73.851			
00:00:14	-0.205	73.851			
00:00:14	-0.441	73.851			
00:00:14	-0.620	73.851			
00:00:14	-0.858	73.851			
00:00:14	-0.832	73.851			
00:00:14	-0.639	73.851			
00:00:14	-0.502	73.851			
00:00:14	-0.307	73.851			
00:00:14	-0.246	73.851			
00:00:14	-0.005	73.851			
00:00:14	0.080	73.851			
00:00:14	0.077	73.851			
00:00:14	0.368	73.851			
00:00:14	0.324	73.851			
00:00:14	0.428	73.851			
00:00:14	0.500	73.851			
00:00:14	0.234	73.851			
00:00:14	0.435	73.851			
00:00:14	0.265	73.851			
00:00:14	0.242	73.851			
00:00:14	0.217	73.851			
00:00:14	-0.133	73.851			
00:00:14	-0.261	73.851			
00:00:14	-0.499	73.851			
00:00:14	-0.607	73.851			
00:00:14	-0.752	73.851			
00:00:14	-1.024	73.851			
00:00:14	-0.978	73.851			
00:00:14	-1.190	73.851			
00:00:14	-1.447	73.851			
00:00:14	-1.617	73.851			
00:00:14	-1.838	73.851			
00:00:14	-1.893	73.851			
00:00:14	-2.144	73.851			
00:00:14	-2.373	73.851			
00:00:14	-2.473	73.851			
00:00:14	-2.680	73.851			
00:00:14	-2.713	73.851			
00:00:14	-2.654	73.851			
00:00:14	-2.702	73.851			
00:00:14	-2.521	73.851			
00:00:14	-2.455	73.851			
00:00:14	-2.210	73.851			
00:00:14	-2.045	73.851			
00:00:14	-2.134	73.851			
00:00:14	-1.875	73.851			
00:00:14	-1.835	73.851			
00:00:14	-1.683	73.851			
00:00:14	-1.382	73.851			
00:00:14	-1.334	73.851			
00:00:14	-1.045	73.851			
00:00:14	-1.033	73.851			
00:00:14	-1.104	73.851			
00:00:14	-0.951	73.851			
00:00:14	-1.143	73.851			
00:00:14	-1.154	73.851			
00:00:14	-1.224	73.851			
00:00:14	-1.293	73.851			
00:00:14	-1.201	73.851			
00:00:14	-1.370	73.851			
00:00:14	-1.350	73.851			
00:00:14	-1.492	73.851			
00:00:14	-1.702	73.851			
00:00:14	-1.616	73.851			
00:00:14	-1.671	73.851			
00:00:14	-1.606	73.851			
00:00:14	-1.365	73.851			
00:00:14	-1.017	73.851			
00:00:14	-0.240	73.851			
00:00:14	0.712	73.851			
00:00:14	1.921	73.851			
00:00:14	3.421	73.851			
00:00:14	5.031	73.851			
00:00:14	6.940	73.851			
00:00:14	8.839	73.851			
00:00:14	10.482	73.851			
00:00:14	12.048	73.851			
00:00:14	13.240	73.851			
00:00:14	14.390	73.851			
00:00:14	15.283	73.851			
00:00:14	15.646	73.851			
00:00:14	15.985	73.851			
00:00:14	15.863	73.851			
00:00:14	15.679	73.851			
00:00:14	15.299	73.851			
00:00:14	14.642	73.851			
00:00:14	14.180	73.851			
00:00:14	13.213	73.851			
00:00:14	12.132	73.851			
00:00:14	11.308	73.851			
00:00:14	10.347	73.851			
00:00:14	9.738	73.851			
00:00:14	8.747	74.563			
00:00:14	7.857	74.563			
00:00:14	7.114	74.563			
00:00:14	6.153	74.563			
00:00:14	5.302	74.568			
00:00:14	4.189	74.568			
00:00:14	3.248	74.568			
00:00:14	2.560	74.568			
00:00:14	1.771	74.568			
00:00:14	1.142	74.568			
00:00:14	0.421	74.568			
00:00:14	-0.367	74.568			
00:00:14	-0.680	74.568			
00:00:14	-1.044	74.568			
00:00:14	-1.098	74.568			
00:00:14	-1.045	74.568			
00:00:14	-0.976	74.568			
00:00:14	-0.656	74.568			
00:00:14	-0.427	74.568			
00:00:14	-0.140	74.568			
00:00:14	0.110	74.568			
00:00:14	0.205	74.568			
00:00:14	0.614	74.568			
00:00:14	0.845	74.568			
00:00:14	0.791	74.568			
00:00:14	0.839	74.568			
00:00:14	0.632	74.568			
00:00:14	0.557	74.568			
00:00:15	0.491	74.568			
00:00:15	0.288	74.568			
00:00:15	0.292	74.568			
00:00:15	-0.038	74.568			
00:00:15	-0.284	74.568			
00:00:15	-0.437	74.568			
00:00:15	-0.714	74.568			
00:00:15	-0.701	74.568			
00:00:15	-0.849	74.568			
00:00:15	-0.860	74.568			
00:00:15	-0.932	74.568			
00:00:15	-1.063	74.568			
00:00:15	-1.015	74.568			
00:00:15	-1.305	74.568			
00:00:15	-1.484	74.568			
00:00:15	-1.569	74.568			
00:00:15	-1.847	74.568			
00:00:15	-1.997	74.568			
00:00:15	-2.190	74.568			
00:00:15	-2.269	74.568			
00:00:15	-2.287	74.568			
00:00:15	-2.414	74.568			
00:00:15	-2.324	74.568			
00:00:15	-2.322	74.568			
00:00:15	-2.277	74.568			
00:00:15	-2.103	74.568			
00:00:15	-2.099	74.568			
00:00:15	-2.100	74.568			
00:00:15	-2.084	74.568			
00:00:15	-1.994	74.568			
00:00:15	-1.629	74.568			
00:00:15	-1.425	74.568			
00:00:15	-1.181	74.568			
00:00:15	-0.859	74.568			
00:00:15	-0.973	74.568			
00:00:15	-0.812	74.568			
00:00:15	-0.762	74.568			
00:00:15	-0.786	74.568			
00:00:15	-0.725	74.568			
00:00:15	-0.965	74.568			
00:00:15	-0.893	74.568			
00:00:15	-0.989	74.568			
00:00:15	-1.188	74.568			
00:00:15	-1.110	74.568			
00:00:15	-1.239	74.568			
00:00:15	-1.185	74.568			
00:00:15	-1.255	74.568			
00:00:15	-1.604	74.568			
00:00:15	-1.556	74.568			
00:00:15	-1.497	74.568			
00:00:15	-1.258	74.568			
00:00:15	-0.998	74.568			
00:00:15	-0.594	74.568			
00:00:15	0.145	74.568			
00:00:15	0.921	74.568			
00:00:15	2.332	74.568			
00:00:15	4.009	74.568			
00:00:15	5.656	74.568			
00:00:15	7.509	74.568			
00:00:15	9.378	74.568			
00:00:15	11.150	74.568			
00:00:15	12.874	74.568			
00:00:15	14.192	74.568			
00:00:15	15.294	74.568			
00:00:15	16.088	74.568			
00:00:15	16.363	74.568			
00:00:15	16.541	74.568			
00:00:15	16.362	74.568			
00:00:15	16.143	74.568			
00:00:15	15.841	74.568			
00:00:15	15.234	74.568			
00:00:15	14.721	74.568			
00:00:15	13.931	74.568			
00:00:15	13.113	74.568			
00:00:15	12.328	74.568			
00:00:15	11.310	74.568			
00:00:15	10.563	73.143			
00:00:15	9.640	73.143			
00:00:15	8.682	73.143			
00:00:15	7.915	73.143			
00:00:15	6.942	73.148			
00:00:15	6.155	73.148			
00:00:15	5.174	73.148			
00:00:15	4.150	73.148			
00:00:15	3.341	73.148			
00:00:15	2.284	73.148			
00:00:15	1.589	73.148			
00:00:15	0.921	73.148			
00:00:15	0.241	73.148			
00:00:15	-0.164	73.148			
00:00:15	-0.611	73.148			
00:00:15	-0.667	73.148			
00:00:15	-0.695	73.148			
00:00:15	-0.802	73.148			
00:00:15	-0.472	73.148			
00:00:15	-0.423	73.148			
00:00:15	-0.308	73.148			
00:00:15	-0.116	73.148			
00:00:15	0.067	73.148			
00:00:15	0.500	73.148			
00:00:15	0.644	73.148			
00:00:15	0.855	73.148			
00:00:15	1.020	73.148			
00:00:15	0.889	73.148			
00:00:15	0.927	73.148			
00:00:15	0.890	73.148			
00:00:15	0.647	73.148			
00:00:15	0.513	73.148			
00:00:15	0.285	73.148			
00:00:15	0.180	73.148			
00:00:15	-0.043	73.148			
00:00:15	-0.448	73.148			
00:00:15	-0.554	73.148			
00:00:15	-0.946	73.148			
00:00:15	-1.058	73.148			
00:00:15	-1.080	73.148			
00:00:15	-1.403	73.148			
00:00:15	-1.403	73.148			
00:00:15	-1.623	73.148			
00:00:15	-1.764	73.148			
00:00:15	-1.865	73.148			
00:00:15	-2.045	73.148			
00:00:15	-1.911	73.148			
00:00:15	-2.039	73.148			
00:00:15	-1.979	73.148			
00:00:15	-2.011	73.148			
00:00:15	-2.222	73.148			
00:00:15	-2.067	73.148			
00:00:16	-2.088	71.116			
00:00:16	-2.060	71.116			
00:00:16	-1.800	71.116			
00:00:16	-1.738	71.116			
00:00:16	-1.566	71.116			
00:00:16	-1.511	71.116			
00:00:16	-1.490	71.116			
00:00:16	-1.316	71.116			
00:00:16	-1.410	71.116			
00:00:16	-1.432	71.116			
00:00:16	-1.344	71.116			
00:00:16	-1.292	71.116			
00:00:16	-1.011	71.116			
00:00:16	-0.882	71.116			
00:00:16	-0.891	71.116			
00:00:16	-0.766	71.116			
00:00:16	-0.840	71.116			
00:00:16	-0.784	71.116			
00:00:16	-0.900	71.116			
00:00:16	-0.965	71.116			
00:00:16	-0.815	71.116			
00:00:16	-1.058	71.116			
00:00:16	-0.988	71.116			
00:00:16	-0.936	71.116			
00:00:16	-1.194	71.116			
00:00:16	-1.132	71.116			
00:00:16	-1.334	71.116			
00:00:16	-1.398	71.116			
00:00:16	-1.410	71.116			
00:00:16	-1.465	71.116			
00:00:16	-1.195	71.116			
00:00:16	-1.044	71.116			
00:00:16	-0.476	71.116			
00:00:16	0.338	71.116			
00:00:16	1.252	71.116			
00:00:16	2.693	71.116			
00:00:16	4.256	71.116			
00:00:16	6.120	71.116			
00:00:16	8.045	71.116			
00:00:16	9.717	71.116			
00:00:16	11.586	71.116			
00:00:16	13.217	71.116			
00:00:16	14.510	71.116			
00:00:16	15.581	71.116			
00:00:16	16.273	71.116			
00:00:16	16.749	71.116			
00:00:16	16.846	71.116			
00:00:16	16.705	71.116			
00:00:16	16.407	71.116			
00:00:16	15.914	71.116			
00:00:16	15.385	71.116			
00:00:16	14.814	71.116			
00:00:16	13.827	71.116			
00:00:16	13.040	71.116			
00:00:16	12.156	71.116			
00:00:16	11.313	71.116			
00:00:16	10.566	76.800			
00:00:16	9.523	76.800			
00:00:16	8.678	76.800			
00:00:16	7.781	76.800			
00:00:16	6.924	76.805			
00:00:16	6.265	76.805			
00:00:16	5.224	76.805			
00:00:16	4.480	76.805			
00:00:16	3.518	76.805			
00:00:16	2.495	76.805			
00:00:16	1.794	76.805			
00:00:16	1.018	76.805			
00:00:16	0.630	76.805			
00:00:16	0.031	76.805			
00:00:16	-0.403	76.805			
00:00:16	-0.377	76.805			
00:00:16	-0.567	76.805			
00:00:16	-0.445	76.805			
00:00:16	-0.349	76.805			
00:00:16	-0.244	76.805			
00:00:16	0.146	76.805			
00:00:16	0.330	76.805			
00:00:16	0.714	76.805			
00:00:16	0.979	76.805			
00:00:16	0.983	76.805			
00:00:16	1.245	76.805			
00:00:16	1.255	76.805			
00:00:16	1.287	76.805			
00:00:16	1.188	76.805			
00:00:16	0.892	76.805			
00:00:16	0.795	76.805			
00:00:16	0.576	76.805			
00:00:16	0.215	76.805			
00:00:16	0.190	76.805			
00:00:16	-0.010	76.805			
00:00:16	-0.286	76.805			
00:00:16	-0.510	76.805			
00:00:16	-0.630	76.805			
00:00:16	-0.526	76.805			
00:00:16	-0.757	76.805			
00:00:16	-0.969	76.805			
00:00:16	-0.964	76.805			
00:00:16	-1.168	76.805			
00:00:16	-1.062	76.805			
00:00:16	-1.282	76.805			
00:00:16	-1.391	76.805			
00:00:16	-1.362	76.805			
00:00:16	-1.581	76.805			
00:00:16	-1.464	76.805			
00:00:16	-1.622	76.805			
00:00:16	-1.768	76.805			
00:00:16	-1.732	76.805			
00:00:16	-1.989	76.805			
00:00:16	-1.852	76.805			
00:00:16	-1.856	76.805			
00:00:16	-1.823	76.805			
00:00:16	-1.717	76.805			
00:00:16	-1.777	76.805			
00:00:16	-1.617	76.805			
00:00:16	-1.490	76.805			
00:00:16	-1.472	76.805			
00:00:16	-1.177	76.805			
00:00:16	-1.082	76.805			
00:00:16	-0.932	76.805			
00:00:16	-0.644	76.805			
00:00:16	-0.728	76.805			
00:00:16	-0.568	76.805			
00:00:16	-0.516	76.805			
00:00:16	-0.513	76.805			
00:00:16	-0.309	76.805			
00:00:16	-0.459	76.805			
00:00:16	-0.335	76.805			
00:00:17	-0.330	76.805			
00:00:17	-0.481	76.805			
00:00:17	-0.453	76.805			
00:00:17	-0.796	76.805			
00:00:17	-0.926	76.805			
00:00:17	-1.045	76.805			
00:00:17	-1.133	76.805			
00:00:17	-0.979	76.805			
00:00:17	-1.032	76.805			
00:00:17	-1.031	76.805			
00:00:17	-1.081	76.805			
00:00:17	-0.924	76.805			
00:00:17	-0.580	76.805			
00:00:17	-0.201	76.805			
00:00:17	0.623	76.805			
00:00:17	1.827	76.805			
00:00:17	3.197	76.805			
00:00:17	5.025	76.805			
00:00:17	6.855	76.805			
00:00:17	8.687	76.805			
00:00:17	10.514	76.805			
00:00:17	12.131	76.805			
00:00:17	13.715	76.805			
00:00:17	15.144	76.805			
00:00:17	16.028	76.805			
00:00:17	16.717	76.805			
00:00:17	16.936	76.805			
00:00:17	17.009	76.805			
00:00:17	16.868	76.805			
00:00:17	16.276	76.805			
00:00:17	15.707	76.805			
00:00:17	14.874	76.805			
00:00:17	14.232	76.805			
00:00:17	13.549	76.805			
00:00:17	12.491	76.805			
00:00:17	11.730	76.805			
00:00:17	10.777	70.459			
00:00:17	9.866	70.459			
00:00:17	9.079	70.459			
00:00:17	8.228	70.459			
00:00:17	7.459	70.464			
00:00:17	6.341	70.464			
00:00:17	5.414	70.464			
00:00:17	4.647	70.464			
00:00:17	3.558	70.464			
00:00:17	2.802	70.464			
00:00:17	2.056	70.464			
00:00:17	1.385	70.464			
00:00:17	0.960	70.464			
00:00:17	0.566	70.464			
00:00:17	0.262	70.464			
00:00:17	0.052	70.464			
00:00:17	-0.115	70.464			
00:00:17	0.097	70.464			
00:00:17	0.206	70.464			
00:00:17	0.334	70.464			
00:00:17	0.507	70.464			
00:00:17	0.571	70.464			
00:00:17	0.845	70.464			
00:00:17	0.989	70.464			
00:00:17	1.164	70.464			
00:00:17	1.449	70.464			
00:00:17	1.330	70.464			
00:00:17	1.413	70.464			
00:00:17	1.397	70.464			
00:00:17	1.148	70.464			
00:00:17	1.175	70.464			
00:00:17	0.904	70.464			
00:00:17	0.768	70.464			
00:00:17	0.637	70.464			
00:00:17	0.368	70.464			
00:00:17	0.313	70.464			
00:00:17	0.121	70.464			
00:00:17	0.017	70.464			
00:00:17	-0.307	70.464			
00:00:17	-0.655	70.464			
00:00:17	-0.689	70.464			
00:00:17	-0.911	70.464			
00:00:17	-1.058	70.464			
00:00:17	-1.139	70.464			
00:00:17	-1.313	70.464			
00:00:17	-1.376	70.464			
00:00:17	-1.488	70.464			
00:00:17	-1.628	70.464			
00:00:17	-1.577	70.464			
00:00:17	-1.786	70.464			
00:00:17	-1.777	70.464			
00:00:17	-1.762	70.464			
00:00:17	-1.730	70.464			
00:00:17	-1.475	70.464			
00:00:17	-1.553	70.464			
00:00:17	-1.419	70.464			
00:00:17	-1.402	70.464			
00:00:17	-1.403	70.464			
00:00:17	-1.112	70.464			
00:00:17	-1.171	70.464			
00:00:17	-1.043	70.464			
00:00:17	-0.751	70.464			
00:00:17	-0.648	70.464			
00:00:17	-0.444	70.464			
00:00:17	-0.494	70.464			
00:00:17	-0.366	70.464			
00:00:17	-0.251	70.464			
00:00:17	-0.332	70.464			
00:00:17	-0.229	70.464			
00:00:17	-0.334	70.464			
00:00:17	-0.365	70.464			
00:00:17	-0.220	70.464			
00:00:17	-0.397	70.464			
00:00:17	-0.385	70.464			
00:00:17	-0.520	70.464			
00:00:17	-0.630	70.464			
00:00:17	-0.480	70.464			
00:00:17	-0.695	70.464			
00:00:17	-0.793	70.464			
00:00:17	-0.842	70.464			
00:00:17	-0.998	70.464			
00:00:17	-0.903	70.464			
00:00:17	-0.718	70.464			
00:00:17	-0.316	70.464			
00:00:17	0.386	70.464			
00:00:17	1.135	70.464			
00:00:17	2.432	70.464			
00:00:17	3.781	70.464			
00:00:17	5.350	70.464			
00:00:17	7.317	70.464			
00:00:17	9.073	70.464			
00:00:17	10.934	70.464			
00:00:18	12.551	70.464			
00:00:18	13.806	70.464			
00:00:18	14.850	70.464			
00:00:18	15.385	70.464			
00:00:18	15.837	70.464			
00:00:18	16.021	70.464			
00:00:18	15.874	70.464			
00:00:18	15.727	70.464			
00:00:18	15.316	70.464			
00:00:18	14.757	70.464			
00:00:18	14.009	70.464			
00:00:18	13.185	70.464			
00:00:18	12.476	70.464			
00:00:18	11.595	70.464			
00:00:18	10.785	70.464			
00:00:18	9.946	70.464			
00:00:18	8.940	72.453			
00:00:18	8.131	72.453			
00:00:18	7.260	72.453			
00:00:18	6.314	72.453			
00:00:18	5.584	72.458			
00:00:18	4.619	72.458			
00:00:18	3.768	72.458			
00:00:18	2.885	72.458			
00:00:18	1.876	72.458			
00:00:18	1.322	72.458			
00:00:18	0.703	72.458			
00:00:18	0.285	72.458			
00:00:18	0.164	72.458			
00:00:18	0.062	72.458			
00:00:18	0.097	72.458			
00:00:18	-0.089	72.458			
00:00:18	0.246	72.458			
00:00:18	0.554	72.458			
00:00:18	0.749	72.458			
00:00:18	1.164	72.458			
00:00:18	1.318	72.458			
00:00:18	1.477	72.458			
00:00:18	1.638	72.458			
00:00:18	1.795	72.458			
00:00:18	1.994	72.458			
00:00:18	1.758	72.458			
00:00:18	1.752	72.458			
00:00:18	1.672	72.458			
00:00:18	1.322	72.458			
00:00:18	1.203	72.458			
00:00:18	1.120	72.458			
00:00:18	1.009	72.458			
00:00:18	0.968	72.458			
00:00:18	0.813	72.458			
00:00:18	0.654	72.458			
00:00:18	0.271	72.458			
00:00:18	-0.201	72.458			
00:00:18	-0.318	72.458			
00:00:18	-0.494	72.458			
00:00:18	-0.576	72.458			
00:00:18	-0.597	72.458			
00:00:18	-0.950	72.458			
00:00:18	-0.953	72.458			
00:00:18	-1.181	72.458			
00:00:18	-1.445	72.458			
00:00:18	-1.447	72.458			
00:00:18	-1.608	72.458			
00:00:18	-1.475	72.458			
00:00:18	-1.430	72.458			
00:00:18	-1.532	72.458			
00:00:18	-1.290	72.458			
00:00:18	-1.351	72.458			
00:00:18	-1.204	72.458			
00:00:18	-1.208	72.458			
00:00:18	-1.126	72.458			
00:00:18	-0.797	72.458			
00:00:18	-0.811	72.458			
00:00:18	-0.762	72.458			
00:00:18	-0.628	72.458			
00:00:18	-0.419	72.458			
00:00:18	-0.133	72.458			
00:00:18	-0.132	72.458			
00:00:18	0.010	72.458			
00:00:18	0.136	72.458			
00:00:18	0.154	72.458			
00:00:18	0.316	72.458			
00:00:18	0.334	72.458			
00:00:18	0.270	72.458			
00:00:18	0.292	72.458			
00:00:18	0.164	72.458			
00:00:18	0.141	72.458			
00:00:18	0.008	72.458			
00:00:18	-0.210	72.458			
00:00:18	-0.194	72.458			
00:00:18	-0.330	72.458			
00:00:18	-0.404	72.458			
00:00:18	-0.368	72.458			
00:00:18	-0.557	72.458			
00:00:18	-0.481	72.458			
00:00:18	-0.320	72.458			
00:00:18	0.322	72.458			
00:00:18	1.236	72.458			
00:00:18	2.153	72.458			
00:00:18	3.625	72.458			
00:00:18	5.210	72.458			
00:00:18	6.973	72.458			
00:00:18	8.865	72.458			
00:00:18	10.487	72.458			
00:00:18	12.294	72.458			
00:00:18	13.642	72.458			
00:00:18	14.833	72.458			
00:00:18	15.861	72.458			
00:00:18	16.287	72.458			
00:00:18	16.796	72.458			
00:00:18	16.777	72.458			
00:00:18	16.526	72.458			
00:00:18	16.138	72.458			
00:00:18	15.548	72.458			
00:00:18	14.937	72.458			
00:00:18	14.116	72.458			
00:00:18	13.308	72.458			
00:00:18	12.695	72.458			
00:00:18	11.903	72.458			
00:00:18	11.221	72.458			
00:00:18	10.592	73.143			
00:00:18	9.679	73.143			
00:00:18	8.927	73.143			
00:00:18	8.074	73.143			
00:00:18	7.242	73.148			
00:00:18	6.343	73.148			
00:00:18	5.254	73.148			
00:00:18	4.496	73.148			
00:00:19	3.701	73.148			
00:00:19	2.954	73.148			
00:00:19	2.443	73.148			
00:00:19	1.711	73.148			
00:00:19	1.251	73.148			
00:00:19	0.975	73.148			
00:00:19	0.696	73.148			
00:00:19	0.853	73.148			
00:00:19	0.747	73.148			
00:00:19	0.772	73.148			
00:00:19	0.812	73.148			
00:00:19	0.815	73.148			
00:00:19	1.240	73.148			
00:00:19	1.371	73.148			
00:00:19	1.655	73.148			
00:00:19	1.944	73.148			
00:00:19	1.873	73.148			
00:00:19	1.960	73.148			
00:00:19	1.784	73.148			
00:00:19	1.713	73.148			
00:00:19	1.750	73.148			
00:00:19	1.622	73.148			
00:00:19	1.724	73.148			
00:00:19	1.534	73.148			
00:00:19	1.284	73.148			
00:00:19	1.053	73.148			
00:00:19	0.610	73.148			
00:00:19	0.374	73.148			
00:00:19	0.006	73.148			
00:00:19	-0.330	73.148			
00:00:19	-0.343	73.148			
00:00:19	-0.483	73.148			
00:00:19	-0.565	73.148			
00:00:19	-0.650	73.148			
00:00:19	-0.862	73.148			
00:00:19	-0.795	73.148			
00:00:19	-0.887	73.148			
00:00:19	-0.961	73.148			
00:00:19	-0.914	73.148			
00:00:19	-1.035	73.148			
00:00:19	-0.872	73.148			
00:00:19	-0.937	73.148			
00:00:19	-0.962	73.148			
00:00:19	-0.757	73.148			
00:00:19	-0.839	73.148			
00:00:19	-0.709	73.148			
00:00:19	-0.696	73.148			
00:00:19	-0.834	73.148			
00:00:19	-0.543	73.148			
00:00:19	-0.501	73.148			
00:00:19	-0.286	73.148			
00:00:19	-0.128	73.148			
00:00:19	-0.124	73.148			
00:00:19	0.158	73.148			
00:00:19	0.090	73.148			
00:00:19	0.240	73.148			
00:00:19	0.348	73.148			
00:00:19	0.329	73.148			
00:00:19	0.419	73.148			
00:00:19	0.374	73.148			
00:00:19	0.445	73.148			
00:00:19	0.525	73.148			
00:00:19	0.405	73.148			
00:00:19	0.360	73.148			
00:00:19	0.223	73.148			
00:00:19	0.147	73.148			
00:00:19	-0.064	73.148			
00:00:19	-0.444	73.148			
00:00:19	-0.491	73.148			
00:00:19	-0.517	73.148			
00:00:19	-0.533	73.148			
00:00:19	-0.147	73.148			
00:00:19	0.223	73.148			
00:00:19	0.854	73.148			
00:00:19	1.676	73.148			
00:00:19	2.628	73.148			
00:00:19	4.177	73.148			
00:00:19	5.777	73.148			
00:00:19	7.521	73.148			
00:00:19	9.441	73.148			
00:00:19	11.122	73.148			
00:00:19	12.964	73.148			
00:00:19	14.366	73.148			
00:00:19	15.537	73.148			
00:00:19	16.598	73.148			
00:00:19	17.098	73.148			
00:00:19	17.491	73.148			
00:00:19	17.314	73.148			
00:00:19	16.985	73.148			
00:00:19	16.815	73.148			
00:00:19	16.149	73.148			
00:00:19	15.628	73.148			
00:00:19	14.979	73.148			
00:00:19	14.141	73.148			
00:00:19	13.367	73.148			
00:00:19	12.384	73.148			
00:00:19	11.631	73.143			
00:00:19	10.800	73.143			
00:00:19	10.057	73.143			
00:00:19	9.544	73.143			
00:00:19	8.726	73.148			
00:00:19	7.810	73.148			
00:00:19	7.077	73.148			
00:00:19	6.245	73.148			
00:00:19	5.317	73.148			
00:00:19	4.351	73.148			
00:00:19	3.758	73.148			
00:00:19	3.294	73.148			
00:00:19	2.551	73.148			
00:00:19	2.081	73.148			
00:00:19	1.608	73.148			
00:00:19	1.076	73.148			
00:00:19	1.082	73.148			
00:00:19	0.844	73.148			
00:00:19	0.944	73.148			
00:00:19	1.088	73.148			
00:00:19	1.133	73.148			
00:00:19	1.387	73.148			
00:00:19	1.400	73.148			
00:00:19	1.767	73.148			
00:00:19	1.979	73.148			
00:00:19	1.948	73.148			
00:00:19	2.190	73.148			
00:00:19	2.107	73.148			
00:00:19	2.093	73.148			
00:00:19	2.082	73.148			
00:00:19	1.948	73.148			
00:00:19	1.954	73.148			
00:00:20	1.653	73.148			
00:00:20	1.442	73.148			
00:00:20	1.214	73.148			
00:00:20	0.872	73.148			
00:00:20	1.002	73.148			
00:00:20	0.731	73.148			
00:00:20	0.280	73.148			
00:00:20	0.099	73.148			
00:00:20	-0.236	73.148			
00:00:20	-0.416	73.148			
00:00:20	-0.524	73.148			
00:00:20	-0.682	73.148			
00:00:20	-0.632	73.148			
00:00:20	-0.756	73.148			
00:00:20	-0.784	73.148			
00:00:20	-0.549	73.148			
00:00:20	-0.558	73.148			
00:00:20	-0.491	73.148			
00:00:20	-0.568	73.148			
00:00:20	-0.632	73.148			
00:00:20	-0.564	73.148			
00:00:20	-0.748	73.148			
00:00:20	-0.644	73.148			
00:00:20	-0.479	73.148			
00:00:20	-0.559	73.148			
00:00:20	-0.403	73.148			
00:00:20	-0.409	73.148			
00:00:20	-0.141	73.148			
00:00:20	0.060	73.148			
00:00:20	-0.037	73.148			
00:00:20	0.145	73.148			
00:00:20	0.113	73.148			
00:00:20	0.233	73.148			
00:00:20	0.326	73.148			
00:00:20	0.329	73.148			
00:00:20	0.512	73.148			
00:00:20	0.341	73.148			
00:00:20	0.481	73.148			
00:00:20	0.687	73.148			
00:00:20	0.519	73.148			
00:00:20	0.652	73.148			
00:00:20	0.512	73.148			
00:00:20	0.395	73.148			
00:00:20	0.324	73.148			
00:00:20	0.096	73.148			
00:00:20	0.089	73.148			
00:00:20	-0.064	73.148			
00:00:20	-0.192	73.148			
00:00:20	-0.087	73.148			
00:00:20	-0.102	73.148			
00:00:20	0.223	73.148			
00:00:20	0.619	73.148			
00:00:20	1.407	73.148			
00:00:20	2.597	73.148			
00:00:20	3.854	73.148			
00:00:20	5.443	73.148			
00:00:20	7.149	73.148			
00:00:20	8.735	73.148			
00:00:20	10.569	73.148			
00:00:20	12.102	73.148			
00:00:20	13.557	73.148			
00:00:20	15.035	73.148			
00:00:20	15.921	73.148			
00:00:20	16.659	73.148			
00:00:20	16.888	73.148			
00:00:20	16.974	73.148			
00:00:20	17.114	73.148			
00:00:20	16.779	73.148			
00:00:20	16.404	73.148			
00:00:20	15.760	73.148			
00:00:20	14.835	73.148			
00:00:20	14.202	73.148			
00:00:20	13.256	73.148			
00:00:20	12.469	73.148			
00:00:20	11.739	73.148			
00:00:20	10.985	73.148			
00:00:20	10.423	72.453			
00:00:20	9.568	72.453			
00:00:20	8.940	72.453			
00:00:20	8.252	72.453			
00:00:20	7.230	72.458			
00:00:20	6.388	72.458			
00:00:20	5.484	72.458			
00:00:20	4.656	72.458			
00:00:20	3.829	72.458			
00:00:20	2.962	72.458			
00:00:20	2.529	72.458			
00:00:20	1.904	72.458			
00:00:20	1.593	72.458			
00:00:20	1.420	72.458			
00:00:20	1.157	72.458			
00:00:20	1.230	72.458			
00:00:20	1.240	72.458			
00:00:20	1.243	72.458			
00:00:20	1.545	72.458			
00:00:20	1.676	72.458			
00:00:20	1.904	72.458			
00:00:20	2.023	72.458			
00:00:20	1.996	72.458			
00:00:20	2.169	72.458			
00:00:20	2.200	72.458			
00:00:20	2.377	72.458			
00:00:20	2.420	72.458			
00:00:20	2.207	72.458			
00:00:20	2.223	72.458			
00:00:20	2.157	72.458			
00:00:20	1.912	72.458			
00:00:20	1.785	72.458			
00:00:20	1.489	72.458			
00:00:20	1.326	72.458			
00:00:20	1.030	72.458			
00:00:20	0.733	72.458			
00:00:20	0.600	72.458			
00:00:20	0.277	72.458			
00:00:20	0.147	72.458			
00:00:20	0.065	72.458			
00:00:20	-0.172	72.458			
00:00:20	-0.139	72.458			
00:00:20	-0.297	72.458			
00:00:20	-0.444	72.458			
00:00:20	-0.461	72.458			
00:00:20	-0.612	72.458			
00:00:20	-0.582	72.458			
00:00:20	-0.721	72.458			
00:00:20	-0.630	72.458			
00:00:20	-0.320	72.458			
00:00:20	-0.471	72.458			
00:00:20	-0.364	72.458			
00:00:21	-0.346	72.458			
00:00:21	-0.352	72.458			
00:00:21	-0.222	72.458			
00:00:21	-0.398	72.458			
00:00:21	-0.182	72.458			
00:00:21	-0.067	72.458			
00:00:21	0.059	72.458			
00:00:21	0.415	72.458			
00:00:21	0.341	72.458			
00:00:21	0.496	72.458			
00:00:21	0.445	72.458			
00:00:21	0.434	72.458			
00:00:21	0.639	72.458			
00:00:21	0.669	72.458			
00:00:21	0.686	72.458			
00:00:21	0.559	72.458			
00:00:21	0.439	72.458			
00:00:21	0.556	72.458			
00:00:21	0.469	72.458			
00:00:21	0.429	72.458			
00:00:21	0.329	72.458			
00:00:21	0.047	72.458			
00:00:21	0.074	72.458			
00:00:21	-0.042	72.458			
00:00:21	-0.096	72.458			
00:00:21	-0.057	72.458			
00:00:21	-0.110	72.458			
00:00:21	0.069	72.458			
00:00:21	0.261	72.458			
00:00:21	0.408	72.458			
00:00:21	0.883	72.458			
00:00:21	1.511	72.458			
00:00:21	2.403	72.458			
00:00:21	3.808	72.458			
00:00:21	5.353	72.458			
00:00:21	7.097	72.458			
00:00:21	8.690	72.458			
00:00:21	10.400	72.458			
00:00:21	12.028	72.458			
00:00:21	13.252	72.458			
00:00:21	14.481	72.458			
00:00:21	15.221	72.458			
00:00:21	15.881	72.458			
00:00:21	16.420	72.458			
00:00:21	16.398	72.458			
00:00:21	16.394	72.458			
00:00:21	16.045	72.458			
00:00:21	15.575	72.458			
00:00:21	15.068	72.458			
00:00:21	14.203	72.458			
00:00:21	13.522	72.458			
00:00:21	12.688	72.458			
00:00:21	11.827	71.776			
00:00:21	11.136	71.776			
00:00:21	10.360	71.776			
00:00:21	9.628	71.776			
00:00:21	8.851	71.781			
00:00:21	7.838	71.781			
00:00:21	7.069	71.781			
00:00:21	6.190	71.781			
00:00:21	5.434	71.781			
00:00:21	4.550	71.781			
00:00:21	3.662	71.781			
00:00:21	3.121	71.781			
00:00:21	2.411	71.781			
00:00:21	1.974	71.781			
00:00:21	1.749	71.781			
00:00:21	1.389	71.781			
00:00:21	1.255	71.781			
00:00:21	1.257	71.781			
00:00:21	1.270	71.781			
00:00:21	1.508	71.781			
00:00:21	1.473	71.781			
00:00:21	1.734	71.781			
00:00:21	1.945	71.781			
00:00:21	1.948	71.781			
00:00:21	2.148	71.781			
00:00:21	2.109	71.781			
00:00:21	2.067	71.781			
00:00:21	2.169	71.781			
00:00:21	2.005	71.781			
00:00:21	2.238	71.781			
00:00:21	2.116	71.781			
00:00:21	2.020	71.781			
00:00:21	2.058	71.781			
00:00:21	1.785	71.781			
00:00:21	1.803	71.781			
00:00:21	1.567	71.781			
00:00:21	1.379	71.781			
00:00:21	1.239	71.781			
00:00:21	0.871	71.781			
00:00:21	0.692	71.781			
00:00:21	0.435	71.781			
00:00:21	0.194	71.781			
00:00:21	0.210	71.781			
00:00:21	-0.077	71.781			
00:00:21	-0.217	71.781			
00:00:21	-0.244	71.781			
00:00:21	-0.389	71.781			
00:00:21	-0.331	71.781			
00:00:21	-0.439	71.781			
00:00:21	-0.477	71.781			
00:00:21	-0.469	71.781			
00:00:21	-0.450	71.781			
00:00:21	-0.258	71.781			
00:00:21	-0.379	71.781			
00:00:21	-0.331	71.781			
00:00:21	-0.260	71.781			
00:00:21	-0.370	71.781			
00:00:21	-0.221	71.781			
00:00:21	-0.085	71.781			
00:00:21	-0.010	71.781			
00:00:21	0.072	71.781			
00:00:21	0.059	71.781			
00:00:21	0.262	71.781			
00:00:21	0.360	71.781			
00:00:21	0.390	71.781			
00:00:21	0.669	71.781			
00:00:21	0.701	71.781			
00:00:21	0.687	71.781			
00:00:21	0.647	71.781			
00:00:21	0.469	71.781			
00:00:21	0.661	71.781			
00:00:21	0.584	71.781			
00:00:21	0.602	71.781			
00:00:21	0.703	71.781			
00:00:21	0.618	71.781			
00:00:21	0.798	71.781			
00:00:22	0.782	71.781			
00:00:22	0.736	71.781			
00:00:22	0.759	71.781			
00:00:22	0.617	71.781			
00:00:22	0.888	71.781			
00:00:22	1.160	71.781			
00:00:22	1.753	71.781			
00:00:22	2.810	71.781			
00:00:22	4.049	71.781			
00:00:22	5.593	71.781			
00:00:22	7.095	71.781			
00:00:22	8.671	71.781			
00:00:22	10.544	71.781			
00:00:22	11.988	71.781			
00:00:22	13.245	71.781			
00:00:22	14.325	71.781			
00:00:22	15.000	71.781			
00:00:22	15.390	71.781			
00:00:22	15.461	71.781			
00:00:22	15.446	71.781			
00:00:22	15.397	71.781			
00:00:22	14.983	71.781			
00:00:22	14.563	71.781			
00:00:22	14.056	71.781			
00:00:22	13.536	71.781			
00:00:22	13.024	71.781			
00:00:22	12.278	71.781			
00:00:22	11.591	71.781			
00:00:22	10.971	74.563			
00:00:22	10.182	74.563			
00:00:22	9.587	74.563			
00:00:22	8.606	74.563			
00:00:22	7.896	74.568			
00:00:22	7.197	74.568			
00:00:22	6.163	74.568			
00:00:22	5.414	74.568			
00:00:22	4.504	74.568			
00:00:22	3.852	74.568			
00:00:22	3.177	74.568			
00:00:22	2.316	74.568			
00:00:22	1.966	74.568			
00:00:22	1.449	74.568			
00:00:22	1.160	74.568			
00:00:22	1.126	74.568			
00:00:22	0.786	74.568			
00:00:22	0.780	74.568			
00:00:22	0.896	74.568			
00:00:22	1.064	74.568			
00:00:22	1.365	74.568			
00:00:22	1.384	74.568			
00:00:22	1.740	74.568			
00:00:22	1.887	74.568			
00:00:22	1.895	74.568			
00:00:22	2.110	74.568			
00:00:22	2.005	74.568			
00:00:22	2.056	74.568			
00:00:22	2.024	74.568			
00:00:22	1.773	74.568			
00:00:22	1.591	74.568			
00:00:22	1.395	74.568			
00:00:22	1.375	74.568			
00:00:22	1.164	74.568			
00:00:22	0.779	74.568			
00:00:22	0.672	74.568			
00:00:22	0.529	74.568			
00:00:22	0.476	74.568			
00:00:22	0.474	74.568			
00:00:22	0.261	74.568			
00:00:22	0.070	74.568			
00:00:22	-0.244	74.568			
00:00:22	-0.516	74.568			
00:00:22	-0.473	74.568			
00:00:22	-0.501	74.568			
00:00:22	-0.517	74.568			
00:00:22	-0.603	74.568			
00:00:22	-0.791	74.568			
00:00:22	-0.742	74.568			
00:00:22	-0.859	74.568			
00:00:22	-0.931	74.568			
00:00:22	-0.891	74.568			
00:00:22	-0.955	74.568			
00:00:22	-0.665	74.568			
00:00:22	-0.673	74.568			
00:00:22	-0.764	74.568			
00:00:22	-0.670	74.568			
00:00:22	-0.706	74.568			
00:00:22	-0.512	74.568			
00:00:22	-0.299	74.568			
00:00:22	-0.205	74.568			
00:00:22	-0.040	74.568			
00:00:22	-0.025	74.568			
00:00:22	0.394	74.568			
00:00:22	0.608	74.568			
00:00:22	0.656	74.568			
00:00:22	0.857	74.568			
00:00:22	0.735	74.568			
00:00:22	0.787	74.568			
00:00:22	0.768	74.568			
00:00:22	0.591	74.568			
00:00:22	0.625	74.568			
00:00:22	0.508	74.568			
00:00:22	0.528	74.568			
00:00:22	0.351	74.568			
00:00:22	0.204	74.568			
00:00:22	0.293	74.568			
00:00:22	0.215	74.568			
00:00:22	0.317	74.568			
00:00:22	0.308	74.568			
00:00:22	0.129	74.568			
00:00:22	0.254	74.568			
00:00:22	0.504	74.568			
00:00:22	1.061	74.568			
00:00:22	1.907	74.568			
00:00:22	2.916	74.568			
00:00:22	4.346	74.568			
00:00:22	5.922	74.568			
00:00:22	7.687	74.568			
00:00:22	9.639	74.568			
00:00:22	11.341	74.568			
00:00:22	12.960	74.568			
00:00:22	14.339	74.568			
00:00:22	15.296	74.568			
00:00:22	16.092	74.568			
00:00:22	16.347	74.568			
00:00:22	16.447	74.568			
00:00:22	16.534	74.568			
00:00:22	16.204	74.568			
00:00:22	15.867	74.568			
00:00:23	15.343	74.568			
00:00:23	14.788	74.568			
00:00:23	14.361	74.568			
00:00:23	13.495	74.568			
00:00:23	12.734	74.568			
00:00:23	11.939	74.568			
00:00:23	11.072	74.568			
00:00:23	10.572	74.568			
00:00:23	9.703	72.453			
00:00:23	8.986	72.453			
00:00:23	8.263	72.453			
00:00:23	7.441	72.453			
00:00:23	6.720	72.458			
00:00:23	5.784	72.458			
00:00:23	5.004	72.458			
00:00:23	4.248	72.458			
00:00:23	3.377	72.458			
00:00:23	2.868	72.458			
00:00:23	2.180	72.458			
00:00:23	1.757	72.458			
00:00:23	1.502	72.458			
00:00:23	1.114	72.458			
00:00:23	1.062	72.458			
00:00:23	0.959	72.458			
00:00:23	1.071	72.458			
00:00:23	1.371	72.458			
00:00:23	1.316	72.458			
00:00:23	1.470	72.458			
00:00:23	1.475	72.458			
00:00:23	1.656	72.458			
00:00:23	1.955	72.458			
00:00:23	1.930	72.458			
00:00:23	2.007	72.458			
00:00:23	1.980	72.458			
00:00:23	1.840	72.458			
00:00:23	1.720	72.458			
00:00:23	1.323	72.458			
00:00:23	1.208	72.458			
00:00:23	1.159	72.458			
00:00:23	1.027	72.458			
00:00:23	0.936	72.458			
00:00:23	0.655	72.458			
00:00:23	0.570	72.458			
00:00:23	0.542	72.458			
00:00:23	0.320	72.458			
00:00:23	0.348	72.458			
00:00:23	0.142	72.458			
00:00:23	-0.055	72.458			
00:00:23	-0.068	72.458			
00:00:23	-0.174	72.458			
00:00:23	-0.154	72.458			
00:00:23	-0.282	72.458			
00:00:23	-0.542	72.458			
00:00:23	-0.524	72.458			
00:00:23	-0.668	72.458			
00:00:23	-0.596	72.458			
00:00:23	-0.509	72.458			
00:00:23	-0.690	72.458			
00:00:23	-0.491	72.458			
00:00:23	-0.632	72.458			
00:00:23	-0.679	72.458			
00:00:23	-0.518	72.458			
00:00:23	-0.491	72.458			
00:00:23	-0.192	72.458			
00:00:23	-0.102	72.458			
00:00:23	0.053	72.458			
00:00:23	0.311	72.458			
00:00:23	0.315	72.458			
00:00:23	0.516	72.458			
00:00:23	0.589	72.458			
00:00:23	0.613	72.458			
00:00:23	0.757	72.458			
00:00:23	0.636	72.458			
00:00:23	0.742	72.458			
00:00:23	0.792	72.458			
00:00:23	0.751	72.458			
00:00:23	0.848	72.458			
00:00:23	0.586	72.458			
00:00:23	0.564	72.458			
00:00:23	0.424	72.458			
00:00:23	0.367	72.458			
00:00:23	0.417	72.458			
00:00:23	0.175	72.458			
00:00:23	0.028	72.458			
00:00:23	-0.101	72.458			
00:00:23	-0.294	72.458			
00:00:23	-0.251	72.458			
00:00:23	-0.228	72.458			
00:00:23	-0.008	72.458			
00:00:23	0.465	72.458			
00:00:23	1.029	72.458			
00:00:23	2.027	72.458			
00:00:23	3.371	72.458			
00:00:23	4.845	72.458			
00:00:23	6.685	72.458			
00:00:23	8.350	72.458			
00:00:23	10.042	72.458			
00:00:23	11.675	72.458			
00:00:23	13.136	72.458			
00:00:23	14.569	72.458			
00:00:23	15.409	72.458			
00:00:23	16.037	72.458			
00:00:23	16.477	72.458			
00:00:23	16.345	72.458			
00:00:23	16.400	72.458			
00:00:23	16.071	72.458			
00:00:23	15.525	72.458			
00:00:23	15.028	72.458			
00:00:23	14.333	72.458			
00:00:23	13.714	72.458			
00:00:23	12.811	72.458			
00:00:23	11.931	72.458			
00:00:23	11.353	72.453			
00:00:23	10.461	72.453			
00:00:23	9.784	72.453			
00:00:23	9.048	72.453			
00:00:23	8.342	72.458			
00:00:23	7.863	72.458			
00:00:23	7.101	72.458			
00:00:23	6.419	72.458			
00:00:23	5.617	72.458			
00:00:23	4.746	72.458			
00:00:23	4.173	72.458			
00:00:23	3.150	72.458			
00:00:23	2.518	72.458			
00:00:23	2.050	72.458			
00:00:23	1.583	72.458			
00:00:23	1.192	72.458			
00:00:24	0.756	72.458			
00:00:24	0.620	72.458			
00:00:24	0.540	72.458			
00:00:24	0.486	72.458			
00:00:24	0.681	72.458			
00:00:24	0.909	72.458			
00:00:24	1.161	72.458			
00:00:24	1.369	72.458			
00:00:24	1.451	72.458			
00:00:24	1.602	72.458			
00:00:24	1.620	72.458			
00:00:24	1.729	72.458			
00:00:24	1.926	72.458			
00:00:24	1.707	72.458			
00:00:24	1.514	72.458			
00:00:24	1.425	72.458			
00:00:24	1.104	72.458			
00:00:24	1.087	72.458			
00:00:24	0.896	72.458			
00:00:24	0.799	72.458			
00:00:24	0.805	72.458			
00:00:24	0.653	72.458			
00:00:24	0.564	72.458			
00:00:24	0.265	72.458			
00:00:24	-0.092	72.458			
00:00:24	-0.238	72.458			
00:00:24	-0.511	72.458			
00:00:24	-0.417	72.458			
00:00:24	-0.338	72.458			
00:00:24	-0.333	72.458			
00:00:24	-0.224	72.458			
00:00:24	-0.478	72.458			
00:00:24	-0.458	72.458			
00:00:24	-0.541	72.458			
00:00:24	-0.589	72.458			
00:00:24	-0.380	72.458			
00:00:24	-0.448	72.458			
00:00:24	-0.349	72.458			
00:00:24	-0.399	72.458			
00:00:24	-0.623	72.458			
00:00:24	-0.463	72.458			
00:00:24	-0.516	72.458			
00:00:24	-0.492	72.458			
00:00:24	-0.365	72.458			
00:00:24	-0.267	72.458			
00:00:24	0.019	72.458			
00:00:24	0.095	72.458			
00:00:24	0.429	72.458			
00:00:24	0.696	72.458			
00:00:24	0.692	72.458			
00:00:24	0.887	72.458			
00:00:24	0.805	72.458			
00:00:24	0.596	72.458			
00:00:24	0.600	72.458			
00:00:24	0.598	72.458			
00:00:24	0.754	72.458			
00:00:24	0.708	72.458			
00:00:24	0.585	72.458			
00:00:24	0.577	72.458			
00:00:24	0.469	72.458			
00:00:24	0.422	72.458			
00:00:24	0.286	72.458			
00:00:24	0.095	72.458			
00:00:24	0.201	72.458			
00:00:24	0.067	72.458			
00:00:24	-0.060	72.458			
00:00:24	-0.045	72.458			
00:00:24	0.063	72.458			
00:00:24	0.412	72.458			
00:00:24	0.821	72.458			
00:00:24	1.429	72.458			
00:00:24	2.575	72.458			
00:00:24	3.625	72.458			
00:00:24	5.170	72.458			
00:00:24	6.928	72.458			
00:00:24	8.640	72.458			
00:00:24	10.470	72.458			
00:00:24	11.795	72.458			
00:00:24	13.186	72.458			
00:00:24	14.301	72.458			
00:00:24	14.914	72.458			
00:00:24	15.609	72.458			
00:00:24	15.798	72.458			
00:00:24	15.983	72.458			
00:00:24	16.026	72.458			
00:00:24	15.601	72.458			
00:00:24	15.181	72.458			
00:00:24	14.338	72.458			
00:00:24	13.592	72.458			
00:00:24	12.925	72.458			
00:00:24	12.015	72.458			
00:00:24	11.460	72.458			
00:00:24	10.680	71.111			
00:00:24	9.755	71.111			
00:00:24	9.134	71.111			
00:00:24	8.365	71.111			
00:00:24	7.838	71.116			
00:00:24	7.217	71.116			
00:00:24	6.464	71.116			
00:00:24	5.802	71.116			
00:00:24	4.784	71.116			
00:00:24	4.018	71.116			
00:00:24	3.252	71.116			
00:00:24	2.419	71.116			
00:00:24	1.943	71.116			
00:00:24	1.376	71.116			
00:00:24	0.924	71.116			
00:00:24	0.625	71.116			
00:00:24	0.420	71.116			
00:00:24	0.419	71.116			
00:00:24	0.381	71.116			
00:00:24	0.394	71.116			
00:00:24	0.687	71.116			
00:00:24	0.888	71.116			
00:00:24	1.282	71.116			
00:00:24	1.498	71.116			
00:00:24	1.495	71.116			
00:00:24	1.708	71.116			
00:00:24	1.717	71.116			
00:00:24	1.898	71.116			
00:00:24	1.959	71.116			
00:00:24	1.645	71.116			
00:00:24	1.568	71.116			
00:00:24	1.255	71.116			
00:00:24	1.031	71.116			
00:00:24	0.925	71.116			
00:00:24	0.654	71.116			
00:00:24	0.712	71.116			
00:00:25	0.476	71.116			
00:00:25	0.301	71.116			
00:00:25	0.216	71.116			
00:00:25	-0.140	71.116			
00:00:25	-0.141	71.116			
00:00:25	-0.470	71.116			
00:00:25	-0.548	71.116			
00:00:25	-0.396	71.116			
00:00:25	-0.464	71.116			
00:00:25	-0.444	71.116			
00:00:25	-0.515	71.116			
00:00:25	-0.577	71.116			
00:00:25	-0.398	71.116			
00:00:25	-0.527	71.116			
00:00:25	-0.461	71.116			
00:00:25	-0.580	71.116			
00:00:25	-0.780	71.116			
00:00:25	-0.548	71.116			
00:00:25	-0.596	71.116			
00:00:25	-0.486	71.116			
00:00:25	-0.351	71.116			
00:00:25	-0.326	71.116			
00:00:25	-0.218	71.116			
00:00:25	-0.328	71.116			
00:00:25	-0.237	71.116			
00:00:25	-0.130	71.116			
00:00:25	-0.170	71.116			
00:00:25	0.195	71.116			
00:00:25	0.398	71.116			
00:00:25	0.576	71.116			
00:00:25	0.831	71.116			
00:00:25	0.798	71.116			
00:00:25	0.803	71.116			
00:00:25	0.758	71.116			
00:00:25	0.837	71.116			
00:00:25	0.816	71.116			
00:00:25	0.545	71.116			
00:00:25	0.470	71.116			
00:00:25	0.351	71.116			
00:00:25	0.175	71.116			
00:00:25	0.278	71.116			
00:00:25	0.136	71.116			
00:00:25	0.039	71.116			
00:00:25	0.089	71.116			
00:00:25	0.006	71.116			
00:00:25	0.031	71.116			
00:00:25	0.007	71.116			
00:00:25	0.045	71.116			
00:00:25	0.210	71.116			
00:00:25	0.499	71.116			
00:00:25	1.175	71.116			
00:00:25	2.090	71.116			
00:00:25	3.178	71.116			
00:00:25	4.731	71.116			
00:00:25	6.210	71.116			
00:00:25	7.942	71.116			
00:00:25	9.683	71.116			
00:00:25	11.221	71.116			
00:00:25	12.766	71.116			
00:00:25	13.768	71.116			
00:00:25	14.676	71.116			
00:00:25	15.273	71.116			
00:00:25	15.311	71.116			
00:00:25	15.360	71.116			
00:00:25	15.025	71.116			
00:00:25	14.623	71.116			
00:00:25	14.282	71.116			
00:00:25	13.470	71.116			
00:00:25	13.030	71.116			
00:00:25	12.299	71.116			
00:00:25	11.483	71.116			
00:00:25	10.944	71.116			
00:00:25	10.152	71.111			
00:00:25	9.501	71.111			
00:00:25	8.750	71.111			
00:00:25	7.980	71.111			
00:00:25	7.383	71.116			
00:00:25	6.479	71.116			
00:00:25	5.893	71.116			
00:00:25	5.054	71.116			
00:00:25	4.130	71.116			
00:00:25	3.545	71.116			
00:00:25	2.678	71.116			
00:00:25	1.959	71.116			
00:00:25	1.310	71.116			
00:00:25	0.777	71.116			
00:00:25	0.589	71.116			
00:00:25	0.404	71.116			
00:00:25	0.313	71.116			
00:00:25	0.295	71.116			
00:00:25	0.190	71.116			
00:00:25	0.431	71.116			
00:00:25	0.715	71.116			
00:00:25	1.055	71.116			
00:00:25	1.351	71.116			
00:00:25	1.337	71.116			
00:00:25	1.544	71.116			
00:00:25	1.702	71.116			
00:00:25	1.843	71.116			
00:00:25	2.019	71.116			
00:00:25	1.823	71.116			
00:00:25	1.777	71.116			
00:00:25	1.617	71.116			
00:00:25	1.320	71.116			
00:00:25	1.272	71.116			
00:00:25	1.137	71.116			
00:00:25	1.028	71.116			
00:00:25	0.782	71.116			
00:00:25	0.427	71.116			
00:00:25	0.323	71.116			
00:00:25	0.089	71.116			
00:00:25	-0.122	71.116			
00:00:25	-0.152	71.116			
00:00:25	-0.363	71.116			
00:00:25	-0.312	71.116			
00:00:25	-0.440	71.116			
00:00:25	-0.352	71.116			
00:00:25	-0.260	71.116			
00:00:25	-0.521	71.116			
00:00:25	-0.551	71.116			
00:00:25	-0.644	71.116			
00:00:25	-0.819	71.116			
00:00:25	-0.736	71.116			
00:00:25	-0.870	71.116			
00:00:25	-0.810	71.116			
00:00:25	-0.811	71.116			
00:00:25	-0.914	71.116			
00:00:25	-0.737	71.116			
00:00:26	-0.666	71.116			
00:00:26	-0.655	71.116			
00:00:26	-0.402	71.116			
00:00:26	-0.267	71.116			
00:00:26	-0.058	71.116			
00:00:26	0.050	71.116			
00:00:26	0.102	71.116			
00:00:26	0.397	71.116			
00:00:26	0.397	71.116			
00:00:26	0.373	71.116			
00:00:26	0.464	71.116			
00:00:26	0.474	71.116			
00:00:26	0.658	71.116			
00:00:26	0.655	71.116			
00:00:26	0.665	71.116			
00:00:26	0.643	71.116			
00:00:26	0.300	71.116			
00:00:26	0.310	71.116			
00:00:26	0.188	71.116			
00:00:26	0.061	71.116			
00:00:26	0.040	71.116			
00:00:26	-0.242	71.116			
00:00:26	-0.211	71.116			
00:00:26	-0.345	71.116			
00:00:26	-0.415	71.116			
00:00:26	-0.255	71.116			
00:00:26	-0.161	71.116			
00:00:26	0.274	71.116			
00:00:26	0.800	71.116			
00:00:26	1.688	71.116			
00:00:26	3.044	71.116			
00:00:26	4.324	71.116			
00:00:26	6.104	71.116			
00:00:26	7.835	71.116			
00:00:26	9.346	71.116			
00:00:26	10.973	71.116			
00:00:26	12.184	71.116			
00:00:26	13.532	71.116			
00:00:26	14.462	71.116			
00:00:26	15.044	71.116			
00:00:26	15.688	71.116			
00:00:26	15.653	71.116			
00:00:26	15.630	71.116			
00:00:26	15.396	71.116			
00:00:26	14.801	71.116			
00:00:26	14.194	71.116			
00:00:26	13.415	71.116			
00:00:26	12.775	71.116			
00:00:26	12.007	71.116			
00:00:26	11.022	71.116			
00:00:26	10.394	71.116			
00:00:26	9.579	71.116			
00:00:26	8.810	72.453			
00:00:26	8.145	72.453			
00:00:26	7.371	72.453			
00:00:26	6.780	72.453			
00:00:26	6.005	72.458			
00:00:26	5.181	72.458			
00:00:26	4.540	72.458			
00:00:26	3.609	72.458			
00:00:26	2.883	72.458			
00:00:26	2.225	72.458			
00:00:26	1.486	72.458			
00:00:26	1.009	72.458			
00:00:26	0.507	72.458			
00:00:26	0.098	72.458			
00:00:26	-0.119	72.458			
00:00:26	-0.292	72.458			
00:00:26	-0.200	72.458			
00:00:26	-0.046	72.458			
00:00:26	0.302	72.458			
00:00:26	0.677	72.458			
00:00:26	0.787	72.458			
00:00:26	1.011	72.458			
00:00:26	1.143	72.458			
00:00:26	1.237	72.458			
00:00:26	1.307	72.458			
00:00:26	1.267	72.458			
00:00:26	1.436	72.458			
00:00:26	1.463	72.458			
00:00:26	1.146	72.458			
00:00:26	1.073	72.458			
00:00:26	0.822	72.458			
00:00:26	0.731	72.458			
00:00:26	0.656	72.458			
00:00:26	0.454	72.458			
00:00:26	0.402	72.458			
00:00:26	0.153	72.458			
00:00:26	0.013	72.458			
00:00:26	0.074	72.458			
00:00:26	-0.153	72.458			
00:00:26	-0.313	72.458			
00:00:26	-0.427	72.458			
00:00:26	-0.503	72.458			
00:00:26	-0.492	72.458			
00:00:26	-0.695	72.458			
00:00:26	-0.697	72.458			
00:00:26	-0.813	72.458			
00:00:26	-1.064	72.458			
00:00:26	-1.099	72.458			
00:00:26	-1.318	72.458			
00:00:26	-1.381	72.458			
00:00:26	-1.340	72.458			
00:00:26	-1.452	72.458			
00:00:26	-1.325	72.458			
00:00:26	-1.379	72.458			
00:00:26	-1.263	72.458			
00:00:26	-0.995	72.458			
00:00:26	-0.957	72.458			
00:00:26	-0.597	72.458			
00:00:26	-0.508	72.458			
00:00:26	-0.453	72.458			
00:00:26	-0.226	72.458			
00:00:26	-0.237	72.458			
00:00:26	0.097	72.458			
00:00:26	0.087	72.458			
00:00:26	0.144	72.458			
00:00:26	0.430	72.458			
00:00:26	0.295	72.458			
00:00:26	0.349	72.458			
00:00:26	0.347	72.458			
00:00:26	0.328	72.458			
00:00:26	0.331	72.458			
00:00:26	-0.046	72.458			
00:00:26	-0.056	72.458			
00:00:26	-0.035	72.458			
00:00:26	-0.158	72.458			
00:00:26	-0.052	72.458			
00:00:27	-0.258	72.458			
00:00:27	-0.268	72.458			
00:00:27	-0.306	72.458			
00:00:27	-0.511	72.458			
00:00:27	-0.365	72.458			
00:00:27	-0.514	72.458			
00:00:27	-0.416	72.458			
00:00:27	-0.099	72.458			
00:00:27	0.262	72.458			
00:00:27	1.191	72.458			
00:00:27	2.293	72.458			
00:00:27	3.712	72.458			
00:00:27	5.392	72.458			
00:00:27	6.869	72.458			
00:00:27	8.734	72.458			
00:00:27	10.547	72.458			
00:00:27	12.113	72.458			
00:00:27	13.503	72.458			
00:00:27	14.390	72.458			
00:00:27	15.231	72.458			
00:00:27	15.622	72.458			
00:00:27	15.773	72.458			
00:00:27	15.991	72.458			
00:00:27	15.716	72.458			
00:00:27	15.405	72.458			
00:00:27	14.912	72.458			
00:00:27	14.115	72.458			
00:00:27	13.498	72.458			
00:00:27	12.533	72.458			
00:00:27	11.683	72.458			
00:00:27	10.927	72.458			
00:00:27	9.991	72.458			
00:00:27	9.453	70.459			
00:00:27	8.576	70.459			
00:00:27	7.735	70.459			
00:00:27	7.014	70.459			
00:00:27	6.047	70.464			
00:00:27	5.412	70.464			
00:00:27	4.527	70.464			
00:00:27	3.733	70.464			
00:00:27	3.231	70.464			
00:00:27	2.418	70.464			
00:00:27	1.830	70.464			
00:00:27	1.257	70.464			
00:00:27	0.741	70.464			
00:00:27	0.574	70.464			
00:00:27	0.164	70.464			
00:00:27	-0.043	70.464			
00:00:27	-0.079	70.464			
00:00:27	-0.048	70.464			
00:00:27	0.199	70.464			
00:00:27	0.283	70.464			
00:00:27	0.509	70.464			
00:00:27	0.785	70.464			
00:00:27	0.852	70.464			
00:00:27	1.134	70.464			
00:00:27	1.271	70.464			
00:00:27	1.350	70.464			
00:00:27	1.531	70.464			
00:00:27	1.365	70.464			
00:00:27	1.333	70.464			
00:00:27	1.188	70.464			
00:00:27	1.006	70.464			
00:00:27	0.920	70.464			
00:00:27	0.708	70.464			
00:00:27	0.678	70.464			
00:00:27	0.599	70.464			
00:00:27	0.235	70.464			
00:00:27	0.212	70.464			
00:00:27	0.092	70.464			
00:00:27	-0.109	70.464			
00:00:27	-0.250	70.464			
00:00:27	-0.501	70.464			
00:00:27	-0.630	70.464			
00:00:27	-0.785	70.464			
00:00:27	-0.849	70.464			
00:00:27	-0.911	70.464			
00:00:27	-1.142	70.464			
00:00:27	-1.287	70.464			
00:00:27	-1.387	70.464			
00:00:27	-1.460	70.464			
00:00:27	-1.365	70.464			
00:00:27	-1.426	70.464			
00:00:27	-1.376	70.464			
00:00:27	-1.234	70.464			
00:00:27	-1.217	70.464			
00:00:27	-1.065	70.464			
00:00:27	-1.006	70.464			
00:00:27	-0.881	70.464			
00:00:27	-0.717	70.464			
00:00:27	-0.724	70.464			
00:00:27	-0.506	70.464			
00:00:27	-0.445	70.464			
00:00:27	-0.387	70.464			
00:00:27	-0.134	70.464			
00:00:27	-0.181	70.464			
00:00:27	-0.118	70.464			
00:00:27	-0.005	70.464			
00:00:27	0.073	70.464			
00:00:27	0.199	70.464			
00:00:27	0.101	70.464			
00:00:27	0.256	70.464			
00:00:27	0.381	70.464			
00:00:27	0.192	70.464			
00:00:27	0.223	70.464			
00:00:27	0.077	70.464			
00:00:27	0.074	70.464			
00:00:27	0.006	70.464			
00:00:27	-0.237	70.464			
00:00:27	-0.220	70.464			
00:00:27	-0.372	70.464			
00:00:27	-0.438	70.464			
00:00:27	-0.355	70.464			
00:00:27	-0.628	70.464			
00:00:27	-0.505	70.464			
00:00:27	-0.383	70.464			
00:00:27	-0.297	70.464			
00:00:27	0.329	70.464			
00:00:27	0.894	70.464			
00:00:27	1.983	70.464			
00:00:27	3.183	70.464			
00:00:27	4.576	70.464			
00:00:27	6.469	70.464			
00:00:27	8.075	70.464			
00:00:27	9.849	70.464			
00:00:27	11.531	70.464			
00:00:27	12.910	70.464			
00:00:27	14.195	70.464			
00:00:28	14.838	70.464			
00:00:28	15.413	70.464			
00:00:28	15.742	70.464			
00:00:28	15.628	70.464			
00:00:28	15.511	70.464			
00:00:28	14.977	70.464			
00:00:28	14.585	70.464			
00:00:28	14.043	70.464			
00:00:28	13.139	70.464			
00:00:28	12.440	70.464			
00:00:28	11.503	70.464			
00:00:28	10.744	70.464			
00:00:28	10.029	70.459			
00:00:28	8.926	70.459			
00:00:28	8.172	70.459			
00:00:28	7.360	70.459			
00:00:28	6.620	70.464			
00:00:28	5.960	70.464			
00:00:28	5.166	70.464			
00:00:28	4.659	70.464			
00:00:28	3.901	70.464			
00:00:28	2.955	70.464			
00:00:28	2.283	70.464			
00:00:28	1.670	70.464			
00:00:28	1.266	70.464			
00:00:28	0.882	70.464			
00:00:28	0.420	70.464			
00:00:28	0.196	70.464			
00:00:28	-0.013	70.464			
00:00:28	-0.028	70.464			
00:00:28	-0.017	70.464			
00:00:28	-0.034	70.464			
00:00:28	0.288	70.464			
00:00:28	0.516	70.464			
00:00:28	0.653	70.464			
00:00:28	0.906	70.464			
00:00:28	0.945	70.464			
00:00:28	1.161	70.464			
00:00:28	1.184	70.464			
00:00:28	1.232	70.464			
00:00:28	1.379	70.464			
00:00:28	1.327	70.464			
00:00:28	1.335	70.464			
00:00:28	1.247	70.464			
00:00:28	1.078	70.464			
00:00:28	1.011	70.464			
00:00:28	0.782	70.464			
00:00:28	0.586	70.464			
00:00:28	0.311	70.464			
00:00:28	0.002	70.464			
00:00:28	-0.121	70.464			
00:00:28	-0.374	70.464			
00:00:28	-0.487	70.464			
00:00:28	-0.593	70.464			
00:00:28	-0.784	70.464			
00:00:28	-0.957	70.464			
00:00:28	-1.120	70.464			
00:00:28	-1.169	70.464			
00:00:28	-1.094	70.464			
00:00:28	-1.066	70.464			
00:00:28	-0.828	70.464			
00:00:28	-0.786	70.464			
00:00:28	-0.896	70.464			
00:00:28	-0.910	70.464			
00:00:28	-1.079	70.464			
00:00:28	-1.165	70.464			
00:00:28	-0.979	70.464			
00:00:28	-0.955	70.464			
00:00:28	-0.894	70.464			
00:00:28	-0.885	70.464			
00:00:28	-0.699	70.464			
00:00:28	-0.551	70.464			
00:00:28	-0.580	70.464			
00:00:28	-0.276	70.464			
00:00:28	-0.204	70.464			
00:00:28	-0.274	70.464			
00:00:28	-0.121	70.464			
00:00:28	-0.056	70.464			
00:00:28	0.176	70.464			
00:00:28	0.311	70.464			
00:00:28	0.297	70.464			
00:00:28	0.416	70.464			
00:00:28	0.408	70.464			
00:00:28	0.310	70.464			
00:00:28	0.187	70.464			
00:00:28	-0.158	70.464			
00:00:28	-0.278	70.464			
00:00:28	-0.383	70.464			
00:00:28	-0.322	70.464			
00:00:28	-0.250	70.464			
00:00:28	-0.342	70.464			
00:00:28	-0.266	70.464			
00:00:28	-0.326	70.464			
00:00:28	-0.410	70.464			
00:00:28	-0.433	70.464			
00:00:28	-0.546	70.464			
00:00:28	-0.257	70.464			
00:00:28	0.172	70.464			
00:00:28	0.921	70.464			
00:00:28	2.101	70.464			
00:00:28	3.353	70.464			
00:00:28	4.980	70.464			
00:00:28	6.710	70.464			
00:00:28	8.456	70.464			
00:00:28	10.212	70.464			
00:00:28	11.521	70.464			
00:00:28	12.879	70.464			
00:00:28	13.992	70.464			
00:00:28	14.647	70.464			
00:00:28	15.446	70.464			
00:00:28	15.566	70.464			
00:00:28	15.488	70.464			
00:00:28	15.321	70.464			
00:00:28	14.786	70.464			
00:00:28	14.253	70.464			
00:00:28	13.351	70.464			
00:00:28	12.511	70.464			
00:00:28	11.824	70.464			
00:00:28	10.904	70.464			
00:00:28	10.185	70.464			
00:00:28	9.441	71.776			
00:00:28	8.572	71.776			
00:00:28	7.805	71.776			
00:00:28	6.911	71.776			
00:00:28	6.287	71.781			
00:00:28	5.630	71.781			
00:00:28	4.770	71.781			
00:00:28	4.241	71.781			
00:00:29	3.415	71.781			
00:00:29	2.735	71.781			
00:00:29	2.119	71.781			
00:00:29	1.437	71.781			
00:00:29	1.117	71.781			
00:00:29	0.681	71.781			
00:00:29	0.512	71.781			
00:00:29	0.490	71.781			
00:00:29	0.104	71.781			
00:00:29	0.225	71.781			
00:00:29	0.374	71.781			
00:00:29	0.509	71.781			
00:00:29	0.741	71.781			
00:00:29	0.756	71.781			
00:00:29	1.222	71.781			
00:00:29	1.464	71.781			
00:00:29	1.520	71.781			
00:00:29	1.763	71.781			
00:00:29	1.770	71.781			
00:00:29	1.855	71.781			
00:00:29	1.763	71.781			
00:00:29	1.599	71.781			
00:00:29	1.683	71.781			
00:00:29	1.383	71.781			
00:00:29	1.111	71.781			
00:00:29	0.948	71.781			
00:00:29	0.684	71.781			
00:00:29	0.673	71.781			
00:00:29	0.323	71.781			
00:00:29	0.203	71.781			
00:00:29	0.252	71.781			
00:00:29	-0.096	71.781			
00:00:29	-0.156	71.781			
00:00:29	-0.409	71.781			
00:00:29	-0.505	71.781			
00:00:29	-0.497	71.781			
00:00:29	-0.908	71.781			
00:00:29	-1.002	71.781			
00:00:29	-1.185	71.781			
00:00:29	-1.305	71.781			
00:00:29	-1.054	71.781			
00:00:29	-1.026	71.781			
00:00:29	-0.872	71.781			
00:00:29	-0.892	71.781			
00:00:29	-1.017	71.781			
00:00:29	-0.861	71.781			
00:00:29	-0.913	71.781			
00:00:29	-0.663	71.781			
00:00:29	-0.525	71.781			
00:00:29	-0.584	71.781			
00:00:29	-0.384	71.781			
00:00:29	-0.386	71.781			
00:00:29	-0.169	71.781			
00:00:29	0.057	71.781			
00:00:29	0.006	71.781			
00:00:29	0.076	71.781			
00:00:29	-0.074	71.781			
00:00:29	-0.084	71.781			
00:00:29	0.119	71.781			
00:00:29	0.052	71.781			
00:00:29	0.169	71.781			
00:00:29	0.136	71.781			
00:00:29	0.068	71.781			
00:00:29	0.093	71.781			
00:00:29	-0.075	71.781			
00:00:29	-0.008	71.781			
00:00:29	-0.003	71.781			
00:00:29	-0.215	71.781			
00:00:29	-0.161	71.781			
00:00:29	-0.316	71.781			
00:00:29	-0.311	71.781			
00:00:29	-0.399	71.781			
00:00:29	-0.351	71.781			
00:00:29	-0.118	71.781			
00:00:29	-0.077	71.781			
00:00:29	0.297	71.781			
00:00:29	0.991	71.781			
00:00:29	1.815	71.781			
00:00:29	3.122	71.781			
00:00:29	4.567	71.781			
00:00:29	6.286	71.781			
00:00:29	8.261	71.781			
00:00:29	9.815	71.781			
00:00:29	11.374	71.781			
00:00:29	12.543	71.781			
00:00:29	13.433	71.781			
00:00:29	14.229	71.781			
00:00:29	14.620	71.781			
00:00:29	14.795	71.781			
00:00:29	14.629	71.781			
00:00:29	14.323	71.781			
00:00:29	14.096	71.781			
00:00:29	13.554	71.781			
00:00:29	13.054	71.781			
00:00:29	12.452	71.781			
00:00:29	11.628	71.781			
00:00:29	10.932	72.453			
00:00:29	10.028	72.453			
00:00:29	9.225	72.453			
00:00:29	8.507	72.453			
00:00:29	7.690	72.458			
00:00:29	7.116	72.458			
00:00:29	6.384	72.458			
00:00:29	5.587	72.458			
00:00:29	4.905	72.458			
00:00:29	4.036	72.458			
00:00:29	3.433	72.458			
00:00:29	2.717	72.458			
00:00:29	1.902	72.458			
00:00:29	1.369	72.458			
00:00:29	0.889	72.458			
00:00:29	0.532	72.458			
00:00:29	0.275	72.458			
00:00:29	-0.084	72.458			
00:00:29	-0.104	72.458			
00:00:29	0.033	72.458			
00:00:29	0.275	72.458			
00:00:29	0.629	72.458			
00:00:29	0.922	72.458			
00:00:29	1.317	72.458			
00:00:29	1.395	72.458			
00:00:29	1.373	72.458			
00:00:29	1.517	72.458			
00:00:29	1.652	72.458			
00:00:29	1.774	72.458			
00:00:29	1.743	72.458			
00:00:29	1.524	72.458			
00:00:29	1.496	72.458			
00:00:30	1.343	72.458			
00:00:30	1.266	72.458			
00:00:30	1.246	72.458			
00:00:30	1.047	72.458			
00:00:30	0.984	72.458			
00:00:30	0.867	72.458			
00:00:30	0.638	72.458			
00:00:30	0.475	72.458			
00:00:30	0.193	72.458			
00:00:30	0.183	72.458			
00:00:30	-0.052	72.458			
00:00:30	-0.272	72.458			
00:00:30	-0.280	72.458			
00:00:30	-0.564	72.458			
00:00:30	-0.659	72.458			
00:00:30	-0.751	72.458			
00:00:30	-0.815	72.458			
00:00:30	-0.580	72.458			
00:00:30	-0.813	72.458			
00:00:30	-0.827	72.458			
00:00:30	-0.789	72.458			
00:00:30	-0.892	72.458			
00:00:30	-0.687	72.458			
00:00:30	-0.799	72.458			
00:00:30	-0.710	72.458			
00:00:30	-0.602	72.458			
00:00:30	-0.665	72.458			
00:00:30	-0.402	72.458			
00:00:30	-0.332	72.458			
00:00:30	-0.172	72.458			
00:00:30	-0.007	72.458			
00:00:30	-0.126	72.458			
00:00:30	0.031	72.458			
00:00:30	0.051	72.458			
00:00:30	0.012	72.458			
00:00:30	0.294	72.458			
00:00:30	0.257	72.458			
00:00:30	0.453	72.458			
00:00:30	0.620	72.458			
00:00:30	0.637	72.458			
00:00:30	0.744	72.458			
00:00:30	0.492	72.458			
00:00:30	0.565	72.458			
00:00:30	0.423	72.458			
00:00:30	0.131	72.458			
00:00:30	0.202	72.458			
00:00:30	0.120	72.458			
00:00:30	0.167	72.458			
00:00:30	0.054	72.458			
00:00:30	-0.096	72.458			
00:00:30	0.207	72.458			
00:00:30	0.433	72.458			
00:00:30	1.016	72.458			
00:00:30	1.887	72.458			
00:00:30	2.714	72.458			
00:00:30	4.034	72.458			
00:00:30	5.581	72.458			
00:00:30	7.259	72.458			
00:00:30	9.145	72.458			
00:00:30	10.570	72.458			
00:00:30	11.975	72.458			
00:00:30	13.224	72.458			
00:00:30	14.198	72.458			
00:00:30	15.082	72.458			
00:00:30	15.320	72.458			
00:00:30	15.505	72.458			
00:00:30	15.442	72.458			
00:00:30	14.976	72.458			
00:00:30	14.494	72.458			
00:00:30	13.657	72.458			
00:00:30	12.916	72.458			
00:00:30	12.318	72.458			
00:00:30	11.477	72.458			
00:00:30	10.855	72.458			
00:00:30	10.043	72.458			
00:00:30	9.412	72.458			
00:00:30	8.898	73.143			
00:00:30	8.017	73.143			
00:00:30	7.382	73.143			
00:00:30	6.868	73.143			
00:00:30	6.174	73.148			
00:00:30	5.524	73.148			
00:00:30	4.596	73.148			
00:00:30	3.918	73.148			
00:00:30	3.197	73.148			
00:00:30	2.358	73.148			
00:00:30	1.917	73.148			
00:00:30	1.288	73.148			
00:00:30	0.926	73.148			
00:00:30	0.602	73.148			
00:00:30	0.131	73.148			
00:00:30	0.202	73.148			
00:00:30	0.156	73.148			
00:00:30	0.116	73.148			
00:00:30	0.377	73.148			
00:00:30	0.603	73.148			
00:00:30	0.952	73.148			
00:00:30	1.015	73.148			
00:00:30	1.320	73.148			
00:00:30	1.617	73.148			
00:00:30	1.525	73.148			
00:00:30	1.468	73.148			
00:00:30	1.414	73.148			
00:00:30	1.349	73.148			
00:00:30	1.318	73.148			
00:00:30	1.017	73.148			
00:00:30	1.115	73.148			
00:00:30	1.030	73.148			
00:00:30	0.660	73.148			
00:00:30	0.518	73.148			
00:00:30	0.282	73.148			
00:00:30	0.122	73.148			
00:00:30	0.062	73.148			
00:00:30	-0.089	73.148			
00:00:30	-0.134	73.148			
00:00:30	-0.391	73.148			
00:00:30	-0.592	73.148			
00:00:30	-0.513	73.148			
00:00:30	-0.705	73.148			
00:00:30	-0.755	73.148			
00:00:30	-0.838	73.148			
00:00:30	-0.827	73.148			
00:00:30	-0.562	73.148			
00:00:30	-0.611	73.148			
00:00:30	-0.544	73.148			
00:00:30	-0.609	73.148			
00:00:30	-0.763	73.148			
00:00:30	-0.544	73.148			
00:00:31	-0.538	73.148			
00:00:31	-0.515	73.148			
00:00:31	-0.533	73.148			
00:00:31	-0.578	73.148			
00:00:31	-0.390	73.148			
00:00:31	-0.410	73.148			
00:00:31	-0.283	73.148			
00:00:31	-0.029	73.148			
00:00:31	-0.002	73.148			
00:00:31	0.210	73.148			
00:00:31	0.134	73.148			
00:00:31	0.154	73.148			
00:00:31	0.369	73.148			
00:00:31	0.074	73.148			
00:00:31	0.273	73.148			
00:00:31	0.401	73.148			
00:00:31	0.372	73.148			
00:00:31	0.564	73.148			
00:00:31	0.213	73.148			
00:00:31	0.080	73.148			
00:00:31	-0.148	73.148			
00:00:31	-0.342	73.148			
00:00:31	-0.261	73.148			
00:00:31	-0.416	73.148			
00:00:31	-0.161	73.148			
00:00:31	-0.036	73.148			
00:00:31	-0.241	73.148			
00:00:31	-0.046	73.148			
00:00:31	-0.034	73.148			
00:00:31	0.186	73.148			
00:00:31	0.905	73.148			
00:00:31	1.784	73.148			
00:00:31	3.233	73.148			
00:00:31	4.593	73.148			
00:00:31	6.223	73.148			
00:00:31	8.023	73.148			
00:00:31	9.487	73.148			
00:00:31	11.056	73.148			
00:00:31	12.285	73.148			
00:00:31	13.227	73.148			
00:00:31	14.171	73.148			
00:00:31	14.525	73.148			
00:00:31	14.837	73.148			
00:00:31	14.796	73.148			
00:00:31	14.664	73.148			
00:00:31	14.468	73.148			
00:00:31	13.908	73.148			
00:00:31	13.386	73.148			
00:00:31	12.848	73.148			
00:00:31	11.984	73.148			
00:00:31	11.394	73.148			
00:00:31	10.465	73.148			
00:00:31	9.867	72.453			
00:00:31	9.331	72.453			
00:00:31	8.469	72.453			
00:00:31	7.961	72.453			
00:00:31	7.370	72.458			
00:00:31	6.635	72.458			
00:00:31	6.060	72.458			
00:00:31	5.227	72.458			
00:00:31	4.367	72.458			
00:00:31	3.398	72.458			
00:00:31	2.558	72.458			
00:00:31	1.910	72.458			
00:00:31	1.181	72.458			
00:00:31	0.894	72.458			
00:00:31	0.635	72.458			
00:00:31	0.179	72.458			
00:00:31	0.238	72.458			
00:00:31	0.093	72.458			
00:00:31	0.119	72.458			
00:00:31	0.356	72.458			
00:00:31	0.441	72.458			
00:00:31	0.615	72.458			
00:00:31	0.710	72.458			
00:00:31	0.882	72.458			
00:00:31	1.247	72.458			
00:00:31	1.261	72.458			
00:00:31	1.515	72.458			
00:00:31	1.368	72.458			
00:00:31	1.332	72.458			
00:00:31	1.452	72.458			
00:00:31	1.060	72.458			
00:00:31	0.998	72.458			
00:00:31	0.687	72.458			
00:00:31	0.351	72.458			
00:00:31	0.357	72.458			
00:00:31	0.054	72.458			
00:00:31	-0.005	72.458			
00:00:31	-0.253	72.458			
00:00:31	-0.449	72.458			
00:00:31	-0.448	72.458			
00:00:31	-0.704	72.458			
00:00:31	-0.584	72.458			
00:00:31	-0.591	72.458			
00:00:31	-0.812	72.458			
00:00:31	-0.710	72.458			
00:00:31	-0.989	72.458			
00:00:31	-0.916	72.458			
00:00:31	-0.931	72.458			
00:00:31	-1.130	72.458			
00:00:31	-0.999	72.458			
00:00:31	-0.936	72.458			
00:00:31	-0.887	72.458			
00:00:31	-0.932	72.458			
00:00:31	-1.154	72.458			
00:00:31	-0.847	72.458			
00:00:31	-0.718	72.458			
00:00:31	-0.729	72.458			
00:00:31	-0.511	72.458			
00:00:31	-0.389	72.458			
00:00:31	-0.054	72.458			
00:00:31	0.214	72.458			
00:00:31	0.264	72.458			
00:00:31	0.574	72.458			
00:00:31	0.445	72.458			
00:00:31	0.420	72.458			
00:00:31	0.234	72.458			
00:00:31	0.075	72.458			
00:00:31	0.212	72.458			
00:00:31	0.027	72.458			
00:00:31	-0.046	72.458			
00:00:31	-0.127	72.458			
00:00:31	-0.294	72.458			
00:00:31	-0.290	72.458			
00:00:31	-0.337	72.458			
00:00:31	-0.414	72.458			
00:00:31	-0.384	72.458			
00:00:32	-0.477	68.576			
00:00:32	-0.391	68.576			
00:00:32	-0.532	68.576			
00:00:32	-0.524	68.576			
00:00:32	-0.261	68.576			
00:00:32	-0.103	68.576			
00:00:32	0.250	68.576			
00:00:32	0.871	68.576			
00:00:32	1.719	68.576			
00:00:32	3.016	68.576			
00:00:32	4.276	68.576			
00:00:32	5.738	68.576			
00:00:32	7.340	68.576			
00:00:32	8.685	68.576			
00:00:32	10.185	68.576			
00:00:32	11.434	68.576			
00:00:32	12.294	68.576			
00:00:32	13.155	68.576			
00:00:32	13.772	68.576			
00:00:32	14.340	68.576			
00:00:32	14.238	68.576			
00:00:32	14.021	68.576			
00:00:32	13.796	68.576			
00:00:32	13.379	68.576			
00:00:32	12.996	68.576			
00:00:32	12.488	68.576			
00:00:32	11.822	68.576			
00:00:32	11.307	68.576			
00:00:32	10.448	94.288			
00:00:32	9.689	94.288			
00:00:32	9.071	94.288			
00:00:32	8.247	94.288			
00:00:32	7.775	94.288			
00:00:32	7.245	94.288			
00:00:32	6.447	94.288			
00:00:32	5.622	94.288			
00:00:32	4.632	94.288			
00:00:32	3.936	94.288			
00:00:32	3.115	94.288			
00:00:32	2.329	94.288			
00:00:32	1.795	94.288			
00:00:32	1.151	94.288			
00:00:32	0.782	94.288			
00:00:32	0.307	94.288			
00:00:32	-0.100	94.288			
00:00:32	-0.066	94.288			
00:00:32	-0.317	94.288			
00:00:32	-0.152	94.288			
00:00:32	0.161	94.288			
00:00:32	0.319	94.288			
00:00:32	0.712	94.288			
00:00:32	0.795	94.288			
00:00:32	0.936	94.288			
00:00:32	0.987	94.288			
00:00:32	0.835	94.288			
00:00:32	1.026	94.288			
00:00:32	1.069	94.288			
00:00:32	1.086	94.288			
00:00:32	1.130	94.288			
00:00:32	0.898	94.288			
00:00:32	0.890	94.288			
00:00:32	0.608	94.288			
00:00:32	0.319	94.288			
00:00:32	0.288	94.288			
00:00:32	-0.161	94.288			
00:00:32	-0.317	94.288			
00:00:32	-0.293	94.288			
00:00:32	-0.366	94.288			
00:00:32	-0.363	94.288			
00:00:32	-0.605	94.288			
00:00:32	-0.639	94.288			
00:00:32	-0.700	94.288			
00:00:32	-0.965	94.288			
00:00:32	-1.014	94.288			
00:00:32	-1.141	94.288			
00:00:32	-1.091	94.288			
00:00:32	-0.888	94.288			
00:00:32	-0.887	94.288			
00:00:32	-0.654	94.288			
00:00:32	-0.823	94.288			
00:00:32	-0.818	94.288			
00:00:32	-0.775	94.288			
00:00:32	-0.842	94.288			
00:00:32	-0.583	94.288			
00:00:32	-0.513	94.288			
00:00:32	-0.490	94.288			
00:00:32	-0.423	94.288			
00:00:32	-0.617	94.288			
00:00:32	-0.536	94.288			
00:00:32	-0.498	94.288			
00:00:32	-0.483	94.288			
00:00:32	-0.340	94.288			
00:00:32	-0.341	94.288			
00:00:32	-0.106	94.288			
00:00:32	-0.054	94.288			
00:00:32	-0.207	94.288			
00:00:32	0.009	94.288			
00:00:32	-0.129	94.288			
00:00:32	-0.009	94.288			
00:00:32	0.044	94.288			
00:00:32	-0.189	94.288			
00:00:32	-0.191	94.288			
00:00:32	-0.352	94.288			
00:00:32	-0.362	94.288			
00:00:32	-0.160	94.288			
00:00:32	-0.278	94.288			
00:00:32	-0.197	94.288			
00:00:32	-0.126	94.288			
00:00:32	-0.045	94.288			
00:00:32	0.143	94.288			
00:00:32	0.282	94.288			
00:00:32	1.067	94.288			
00:00:32	1.818	94.288			
00:00:32	2.804	94.288			
00:00:32	4.146	94.288			
00:00:32	5.397	94.288			
00:00:32	6.875	94.288			
00:00:32	8.359	94.288			
00:00:32	9.828	94.288			
00:00:32	11.272	94.288			
00:00:32	12.110	94.288			
00:00:32	12.781	94.288			
00:00:32	13.087	94.288			
00:00:32	13.272	94.288			
00:00:32	13.328	94.288			
00:00:32	13.024	94.288			
00:00:32	12.711	94.288			
00:00:32	12.358	94.288			
00:00:33	11.678	94.288			
00:00:33	11.264	94.288			
00:00:33	10.641	94.288			
00:00:33	9.879	94.288			
00:00:33	9.135	73.846			
00:00:33	8.439	73.846			
00:00:33	7.846	73.846			
00:00:33	7.273	73.846			
00:00:33	6.696	73.851			
00:00:33	6.180	73.851			
00:00:33	5.383	73.851			
00:00:33	4.719	73.851			
00:00:33	3.933	73.851			
00:00:33	2.935	73.851			
00:00:33	2.064	73.851			
00:00:33	1.201	73.851			
00:00:33	0.596	73.851			
00:00:33	0.203	73.851			
00:00:33	-0.274	73.851			
00:00:33	-0.525	73.851			
00:00:33	-0.564	73.851			
00:00:33	-0.638	73.851			
00:00:33	-0.550	73.851			
00:00:33	-0.450	73.851			
00:00:33	-0.039	73.851			
00:00:33	0.293	73.851			
00:00:33	0.415	73.851			
00:00:33	0.661	73.851			
00:00:33	0.744	73.851			
00:00:33	0.907	73.851			
00:00:33	0.980	73.851			
00:00:33	0.861	73.851			
00:00:33	1.053	73.851			
00:00:33	0.854	73.851			
00:00:33	0.774	73.851			
00:00:33	0.832	73.851			
00:00:33	0.521	73.851			
00:00:33	0.478	73.851			
00:00:33	0.216	73.851			
00:00:33	-0.095	73.851			
00:00:33	-0.230	73.851			
00:00:33	-0.576	73.851			
00:00:33	-0.602	73.851			
00:00:33	-0.801	73.851			
00:00:33	-0.989	73.851			
00:00:33	-0.906	73.851			
00:00:33	-1.038	73.851			
00:00:33	-1.074	73.851			
00:00:33	-1.223	73.851			
00:00:33	-1.404	73.851			
00:00:33	-1.328	73.851			
00:00:33	-1.410	73.851			
00:00:33	-1.339	73.851			
00:00:33	-1.213	73.851			
00:00:33	-1.424	73.851			
00:00:33	-1.337	73.851			
00:00:33	-1.399	73.851			
00:00:33	-1.333	73.851			
00:00:33	-1.153	73.851			
00:00:33	-1.230	73.851			
00:00:33	-1.012	73.851			
00:00:33	-0.929	73.851			
00:00:33	-0.849	73.851			
00:00:33	-0.643	73.851			
00:00:33	-0.733	73.851			
00:00:33	-0.535	73.851			
00:00:33	-0.473	73.851			
00:00:33	-0.375	73.851			
00:00:33	0.089	73.851			
00:00:33	0.117	73.851			
00:00:33	0.128	73.851			
00:00:33	0.031	73.851			
00:00:33	-0.210	73.851			
00:00:33	-0.123	73.851			
00:00:33	-0.375	73.851			
00:00:33	-0.233	73.851			
00:00:33	-0.179	73.851			
00:00:33	-0.393	73.851			
00:00:33	-0.347	73.851			
00:00:33	-0.638	73.851			
00:00:33	-0.787	73.851			
00:00:33	-0.785	73.851			
00:00:33	-1.057	73.851			
00:00:33	-0.827	73.851			
00:00:33	-0.624	73.851			
00:00:33	-0.363	73.851			
00:00:33	0.249	73.851			
00:00:33	0.946	73.851			
00:00:33	2.065	73.851			
00:00:33	3.204	73.851			
00:00:33	4.515	73.851			
00:00:33	6.067	73.851			
00:00:33	7.392	73.851			
00:00:33	9.047	73.851			
00:00:33	10.473	73.851			
00:00:33	11.476	73.851			
00:00:33	12.566	73.851			
00:00:33	13.288	73.851			
00:00:33	13.799	73.851			
00:00:33	14.187	73.851			
00:00:33	14.058	73.851			
00:00:33	14.163	73.851			
00:00:33	13.834	73.851			
00:00:33	13.479	73.851			
00:00:33	13.064	73.851			
00:00:33	12.256	73.851			
00:00:33	11.819	73.851			
00:00:33	11.209	73.851			
00:00:33	10.342	73.846			
00:00:33	9.621	73.846			
00:00:33	8.759	73.846			
00:00:33	8.356	73.846			
00:00:33	7.787	73.851			
00:00:33	6.904	73.851			
00:00:33	6.347	73.851			
00:00:33	5.433	73.851			
00:00:33	4.847	73.851			
00:00:33	4.100	73.851			
00:00:33	3.241	73.851			
00:00:33	2.665	73.851			
00:00:33	1.799	73.851			
00:00:33	1.114	73.851			
00:00:33	0.707	73.851			
00:00:33	0.239	73.851			
00:00:33	-0.029	73.851			
00:00:33	-0.427	73.851			
00:00:33	-0.301	73.851			
00:00:33	0.012	73.851			
00:00:34	0.061	73.851			
00:00:34	0.374	73.851			
00:00:34	0.438	73.851			
00:00:34	0.525	73.851			
00:00:34	0.688	73.851			
00:00:34	0.556	73.851			
00:00:34	0.713	73.851			
00:00:34	0.655	73.851			
00:00:34	0.626	73.851			
00:00:34	0.796	73.851			
00:00:34	0.589	73.851			
00:00:34	0.615	73.851			
00:00:34	0.575	73.851			
00:00:34	0.292	73.851			
00:00:34	0.106	73.851			
00:00:34	-0.188	73.851			
00:00:34	-0.430	73.851			
00:00:34	-0.680	73.851			
00:00:34	-0.918	73.851			
00:00:34	-0.895	73.851			
00:00:34	-1.020	73.851			
00:00:34	-1.078	73.851			
00:00:34	-1.007	73.851			
00:00:34	-1.186	73.851			
00:00:34	-1.205	73.851			
00:00:34	-1.283	73.851			
00:00:34	-1.426	73.851			
00:00:34	-1.249	73.851			
00:00:34	-1.226	73.851			
00:00:34	-1.086	73.851			
00:00:34	-1.019	73.851			
00:00:34	-1.061	73.851			
00:00:34	-1.187	73.851			
00:00:34	-1.448	73.851			
00:00:34	-1.559	73.851			
00:00:34	-1.388	73.851			
00:00:34	-1.275	73.851			
00:00:34	-1.160	73.851			
00:00:34	-1.113	73.851			
00:00:34	-0.927	73.851			
00:00:34	-0.749	73.851			
00:00:34	-0.639	73.851			
00:00:34	-0.358	73.851			
00:00:34	-0.278	73.851			
00:00:34	-0.194	73.851			
00:00:34	-0.059	73.851			
00:00:34	-0.282	73.851			
00:00:34	-0.386	73.851			
00:00:34	-0.466	73.851			
00:00:34	-0.500	73.851			
00:00:34	-0.333	73.851			
00:00:34	-0.365	73.851			
00:00:34	-0.421	73.851			
00:00:34	-0.404	73.851			
00:00:34	-0.486	73.851			
00:00:34	-0.362	73.851			
00:00:34	-0.561	73.851			
00:00:34	-0.743	73.851			
00:00:34	-0.828	73.851			
00:00:34	-1.056	73.851			
00:00:34	-1.063	73.851			
00:00:34	-1.109	73.851			
00:00:34	-1.028	73.851			
00:00:34	-0.636	73.851			
00:00:34	-0.264	73.851			
00:00:34	0.524	73.851			
00:00:34	1.520	73.851			
00:00:34	2.643	73.851			
00:00:34	4.179	73.851			
00:00:34	5.644	73.851			
00:00:34	7.261	73.851			
00:00:34	8.889	73.851			
00:00:34	10.122	73.851			
00:00:34	11.321	73.851			
00:00:34	12.314	73.851			
00:00:34	13.162	73.851			
00:00:34	13.788	73.851			
00:00:34	14.111	73.851			
00:00:34	14.414	73.851			
00:00:34	14.223	73.851			
00:00:34	14.003	73.851			
00:00:34	13.614	73.851			
00:00:34	12.866	73.851			
00:00:34	12.312	73.851			
00:00:34	11.588	73.851			
00:00:34	10.846	73.851			
00:00:34	10.272	73.851			
00:00:34	9.551	73.851			
00:00:34	9.089	72.453			
00:00:34	8.547	72.453			
00:00:34	7.786	72.453			
00:00:34	7.220	72.453			
00:00:34	6.394	72.458			
00:00:34	5.777	72.458			
00:00:34	5.193	72.458			
00:00:34	4.384	72.458			
00:00:34	3.644	72.458			
00:00:34	2.679	72.458			
00:00:34	1.893	72.458			
00:00:34	1.279	72.458			
00:00:34	0.563	72.458			
00:00:34	0.237	72.458			
00:00:34	-0.225	72.458			
00:00:34	-0.509	72.458			
00:00:34	-0.458	72.458			
00:00:34	-0.434	72.458			
00:00:34	-0.285	72.458			
00:00:34	-0.276	72.458			
00:00:34	-0.195	72.458			
00:00:34	0.089	72.458			
00:00:34	0.045	72.458			
00:00:34	0.155	72.458			
00:00:34	0.142	72.458			
00:00:34	-0.091	72.458			
00:00:34	0.122	72.458			
00:00:34	-0.125	72.458			
00:00:34	-0.168	72.458			
00:00:34	-0.108	72.458			
00:00:34	-0.180	72.458			
00:00:34	-0.216	72.458			
00:00:34	-0.661	72.458			
00:00:34	-0.935	72.458			
00:00:34	-1.008	72.458			
00:00:34	-1.342	72.458			
00:00:34	-1.209	72.458			
00:00:34	-1.312	72.458			
00:00:34	-1.458	72.458			
00:00:34	-1.575	72.458			
00:00:35	-1.873	72.458			
00:00:35	-1.781	72.458			
00:00:35	-1.832	72.458			
00:00:35	-1.930	72.458			
00:00:35	-1.770	72.458			
00:00:35	-1.805	72.458			
00:00:35	-1.691	72.458			
00:00:35	-1.632	72.458			
00:00:35	-1.636	72.458			
00:00:35	-1.432	72.458			
00:00:35	-1.609	72.458			
00:00:35	-1.439	72.458			
00:00:35	-1.282	72.458			
00:00:35	-1.409	72.458			
00:00:35	-1.259	72.458			
00:00:35	-1.231	72.458			
00:00:35	-1.039	72.458			
00:00:35	-0.809	72.458			
00:00:35	-0.790	72.458			
00:00:35	-0.528	72.458			
00:00:35	-0.589	72.458			
00:00:35	-0.577	72.458			
00:00:35	-0.255	72.458			
00:00:35	-0.165	72.458			
00:00:35	0.226	72.458			
00:00:35	0.309	72.458			
00:00:35	0.224	72.458			
00:00:35	0.382	72.458			
00:00:35	0.220	72.458			
00:00:35	0.225	72.458			
00:00:35	0.059	72.458			
00:00:35	-0.158	72.458			
00:00:35	-0.133	72.458			
00:00:35	-0.357	72.458			
00:00:35	-0.390	72.458			
00:00:35	-0.421	72.458			
00:00:35	-0.590	72.458			
00:00:35	-0.596	72.458			
00:00:35	-0.910	72.458			
00:00:35	-1.071	72.458			
00:00:35	-1.058	72.458			
00:00:35	-1.244	72.458			
00:00:35	-1.120	72.458			
00:00:35	-1.230	72.458			
00:00:35	-1.225	72.458			
00:00:35	-0.868	72.458			
00:00:35	-0.396	72.458			
00:00:35	0.699	72.458			
00:00:35	1.917	72.458			
00:00:35	3.300	72.458			
00:00:35	5.053	72.458			
00:00:35	6.663	72.458			
00:00:35	8.420	72.458			
00:00:35	9.967	72.458			
00:00:35	11.292	72.458			
00:00:35	12.589	72.458			
00:00:35	13.183	72.458			
00:00:35	13.705	72.458			
00:00:35	14.167	72.458			
00:00:35	14.113	72.458			
00:00:35	14.124	72.458			
00:00:35	13.775	72.458			
00:00:35	13.379	72.458			
00:00:35	12.881	72.458			
00:00:35	12.037	72.458			
00:00:35	11.483	72.458			
00:00:35	10.652	72.458			
00:00:35	9.827	72.458			
00:00:35	9.013	70.459			
00:00:35	8.083	70.459			
00:00:35	7.463	70.459			
00:00:35	6.795	70.459			
00:00:35	6.139	70.464			
00:00:35	5.537	70.464			
00:00:35	4.597	70.464			
00:00:35	3.953	70.464			
00:00:35	3.199	70.464			
00:00:35	2.535	70.464			
00:00:35	2.007	70.464			
00:00:35	1.177	70.464			
00:00:35	0.582	70.464			
00:00:35	0.138	70.464			
00:00:35	-0.299	70.464			
00:00:35	-0.542	70.464			
00:00:35	-0.831	70.464			
00:00:35	-0.653	70.464			
00:00:35	-0.504	70.464			
00:00:35	-0.489	70.464			
00:00:35	-0.255	70.464			
00:00:35	-0.170	70.464			
00:00:35	-0.041	70.464			
00:00:35	0.131	70.464			
00:00:35	0.062	70.464			
00:00:35	0.331	70.464			
00:00:35	0.473	70.464			
00:00:35	0.467	70.464			
00:00:35	0.562	70.464			
00:00:35	0.278	70.464			
00:00:35	0.249	70.464			
00:00:35	0.214	70.464			
00:00:35	0.026	70.464			
00:00:35	-0.028	70.464			
00:00:35	-0.411	70.464			
00:00:35	-0.561	70.464			
00:00:35	-0.617	70.464			
00:00:35	-0.890	70.464			
00:00:35	-0.848	70.464			
00:00:35	-1.080	70.464			
00:00:35	-1.094	70.464			
00:00:35	-1.215	70.464			
00:00:35	-1.640	70.464			
00:00:35	-1.595	70.464			
00:00:35	-1.691	70.464			
00:00:35	-1.673	70.464			
00:00:35	-1.571	70.464			
00:00:35	-1.895	70.464			
00:00:35	-1.952	70.464			
00:00:35	-2.002	70.464			
00:00:35	-1.963	70.464			
00:00:35	-1.791	70.464			
00:00:35	-1.769	70.464			
00:00:35	-1.638	70.464			
00:00:35	-1.628	70.464			
00:00:35	-1.763	70.464			
00:00:35	-1.660	70.464			
00:00:35	-1.719	70.464			
00:00:35	-1.451	70.464			
00:00:35	-1.011	70.464			
00:00:36	-0.957	70.464			
00:00:36	-0.784	70.464			
00:00:36	-0.810	70.464			
00:00:36	-0.758	70.464			
00:00:36	-0.641	70.464			
00:00:36	-0.845	70.464			
00:00:36	-0.786	70.464			
00:00:36	-0.877	70.464			
00:00:36	-0.923	70.464			
00:00:36	-0.867	70.464			
00:00:36	-1.032	70.464			
00:00:36	-0.797	70.464			
00:00:36	-0.694	70.464			
00:00:36	-0.760	70.464			
00:00:36	-0.709	70.464			
00:00:36	-1.006	70.464			
00:00:36	-0.968	70.464			
00:00:36	-0.947	70.464			
00:00:36	-1.098	70.464			
00:00:36	-0.944	70.464			
00:00:36	-1.127	70.464			
00:00:36	-1.117	70.464			
00:00:36	-0.952	70.464			
00:00:36	-0.966	70.464			
00:00:36	-0.588	70.464			
00:00:36	-0.201	70.464			
00:00:36	0.697	70.464			
00:00:36	1.955	70.464			
00:00:36	3.179	70.464			
00:00:36	4.924	70.464			
00:00:36	6.548	70.464			
00:00:36	8.112	70.464			
00:00:36	9.993	70.464			
00:00:36	11.261	70.464			
00:00:36	12.426	70.464			
00:00:36	13.349	70.464			
00:00:36	13.914	70.464			
00:00:36	14.417	70.464			
00:00:36	14.327	70.464			
00:00:36	14.277	70.464			
00:00:36	14.092	70.464			
00:00:36	13.598	70.464			
00:00:36	13.344	70.464			
00:00:36	12.660	70.464			
00:00:36	12.104	70.464			
00:00:36	11.702	70.464			
00:00:36	10.758	70.464			
00:00:36	10.122	70.464			
00:00:36	9.336	71.111			
00:00:36	8.430	71.111			
00:00:36	7.818	71.111			
00:00:36	6.964	71.111			
00:00:36	6.270	71.116			
00:00:36	5.573	71.116			
00:00:36	4.719	71.116			
00:00:36	4.215	71.116			
00:00:36	3.371	71.116			
00:00:36	2.752	71.116			
00:00:36	2.043	71.116			
00:00:36	1.162	71.116			
00:00:36	0.697	71.116			
00:00:36	0.089	71.116			
00:00:36	-0.364	71.116			
00:00:36	-0.692	71.116			
00:00:36	-0.971	71.116			
00:00:36	-0.737	71.116			
