RAW Data export file (tab separated)


Client:	,kozawa
Session:	kozawa8
Date:	06-07-2020
Time:	10:48:13
Duration:	120	Seconds.
Output rate:	128	Samples/sec.

hh:mm:ss	128 SPS	32 SPS	
TIME	Sensor-G:BVP	HR (BVP)	Events	Segments	


00:00:00	14.860	70.000			
00:00:00	14.575	70.000			
00:00:00	14.346	70.000			
00:00:00	13.788	70.000			
00:00:00	12.819	70.000			
00:00:00	12.296	70.000			
00:00:00	11.372	70.000			
00:00:00	10.644	70.000			
00:00:00	9.902	70.000			
00:00:00	8.817	70.000			
00:00:00	8.271	70.000			
00:00:00	7.360	70.000			
00:00:00	6.604	70.000			
00:00:00	6.051	70.000			
00:00:00	5.203	70.000			
00:00:00	4.636	70.000			
00:00:00	3.652	70.000			
00:00:00	2.677	70.000			
00:00:00	1.945	70.000			
00:00:00	0.749	70.000			
00:00:00	0.097	70.000			
00:00:00	-0.537	70.000			
00:00:00	-1.066	70.000			
00:00:00	-1.285	70.000			
00:00:00	-1.938	70.000			
00:00:00	-1.988	70.000			
00:00:00	-1.969	70.000			
00:00:00	-2.070	70.000			
00:00:00	-1.678	70.000			
00:00:00	-1.679	70.000			
00:00:00	-1.394	70.000			
00:00:00	-0.930	70.000			
00:00:00	-0.833	70.000			
00:00:00	-0.498	70.000			
00:00:00	-0.584	70.000			
00:00:00	-0.683	70.000			
00:00:00	-0.598	70.000			
00:00:00	-0.910	70.000			
00:00:00	-0.873	70.000			
00:00:00	-0.957	70.000			
00:00:00	-1.109	70.000			
00:00:00	-1.094	70.000			
00:00:00	-1.646	70.000			
00:00:00	-1.798	70.000			
00:00:00	-2.004	70.000			
00:00:00	-2.261	70.000			
00:00:00	-2.213	70.000			
00:00:00	-2.771	70.000			
00:00:00	-2.915	70.000			
00:00:00	-2.935	70.000			
00:00:00	-3.161	70.000			
00:00:00	-3.006	70.000			
00:00:00	-3.280	70.000			
00:00:00	-3.286	70.000			
00:00:00	-3.149	70.000			
00:00:00	-3.343	70.000			
00:00:00	-3.130	70.000			
00:00:00	-3.140	70.000			
00:00:00	-3.164	70.000			
00:00:00	-3.043	70.000			
00:00:00	-3.350	70.000			
00:00:00	-3.423	70.000			
00:00:00	-3.661	70.000			
00:00:00	-3.862	70.000			
00:00:00	-3.836	70.000			
00:00:00	-4.076	70.000			
00:00:00	-3.835	70.000			
00:00:00	-3.529	70.000			
00:00:00	-3.319	70.000			
00:00:00	-2.689	70.000			
00:00:00	-2.511	70.000			
00:00:00	-2.122	70.000			
00:00:00	-1.788	70.000			
00:00:00	-1.892	70.000			
00:00:00	-1.706	70.000			
00:00:00	-1.769	70.000			
00:00:00	-1.706	70.000			
00:00:00	-1.561	70.000			
00:00:00	-1.760	70.000			
00:00:00	-1.494	70.000			
00:00:00	-1.680	70.000			
00:00:00	-1.901	70.000			
00:00:00	-1.743	70.000			
00:00:00	-2.037	70.000			
00:00:00	-1.853	70.000			
00:00:00	-1.803	70.000			
00:00:00	-2.081	70.000			
00:00:00	-2.026	70.000			
00:00:00	-2.320	70.000			
00:00:00	-2.277	70.000			
00:00:00	-1.940	70.000			
00:00:00	-1.828	70.000			
00:00:00	-0.990	70.000			
00:00:00	-0.187	70.000			
00:00:00	0.975	70.000			
00:00:00	2.495	70.000			
00:00:00	3.965	70.000			
00:00:00	6.114	70.000			
00:00:00	8.023	70.000			
00:00:00	9.746	70.000			
00:00:00	11.517	70.000			
00:00:00	12.677	70.000			
00:00:00	14.171	70.000			
00:00:00	15.045	70.000			
00:00:00	15.555	70.000			
00:00:00	16.090	70.000			
00:00:00	15.844	70.000			
00:00:00	15.466	70.000			
00:00:00	14.938	70.000			
00:00:00	14.209	70.000			
00:00:00	13.702	70.000			
00:00:00	12.663	70.000			
00:00:00	11.831	70.000			
00:00:00	11.011	70.000			
00:00:00	9.862	70.000			
00:00:00	9.120	70.000			
00:00:00	8.183	70.000			
00:00:00	7.410	70.000			
00:00:00	6.864	70.000			
00:00:00	5.899	70.000			
00:00:00	5.289	70.000			
00:00:00	4.295	70.000			
00:00:00	3.303	70.000			
00:00:00	2.621	70.000			
00:00:00	1.475	70.000			
00:00:00	0.837	70.000			
00:00:00	0.114	70.000			
00:00:00	-0.697	70.000			
00:00:01	-1.105	70.000			
00:00:01	-1.695	70.000			
00:00:01	-1.807	70.000			
00:00:01	-1.847	70.000			
00:00:01	-2.209	70.000			
00:00:01	-1.966	70.000			
00:00:01	-1.969	70.000			
00:00:01	-1.678	70.000			
00:00:01	-1.295	70.000			
00:00:01	-1.240	70.000			
00:00:01	-0.792	70.000			
00:00:01	-0.647	70.000			
00:00:01	-0.512	70.000			
00:00:01	-0.228	70.000			
00:00:01	-0.396	70.000			
00:00:01	-0.175	70.000			
00:00:01	-0.161	70.000			
00:00:01	-0.283	70.000			
00:00:01	-0.261	70.000			
00:00:01	-0.690	70.000			
00:00:01	-0.899	70.000			
00:00:01	-1.118	70.000			
00:00:01	-1.535	70.000			
00:00:01	-1.682	70.000			
00:00:01	-2.144	70.000			
00:00:01	-2.170	70.000			
00:00:01	-2.093	70.000			
00:00:01	-2.519	70.000			
00:00:01	-2.401	70.000			
00:00:01	-2.736	70.000			
00:00:01	-2.893	70.000			
00:00:01	-2.816	70.000			
00:00:01	-3.188	70.000			
00:00:01	-3.060	70.000			
00:00:01	-3.154	70.000			
00:00:01	-3.279	70.000			
00:00:01	-3.099	70.000			
00:00:01	-3.490	70.000			
00:00:01	-3.446	70.000			
00:00:01	-3.725	70.000			
00:00:01	-3.774	70.000			
00:00:01	-3.356	70.000			
00:00:01	-3.419	70.000			
00:00:01	-3.203	70.000			
00:00:01	-3.021	70.000			
00:00:01	-3.059	70.000			
00:00:01	-2.686	70.000			
00:00:01	-2.739	70.000			
00:00:01	-2.576	70.000			
00:00:01	-2.408	70.000			
00:00:01	-2.524	70.000			
00:00:01	-2.324	70.000			
00:00:01	-2.246	70.000			
00:00:01	-2.086	70.000			
00:00:01	-1.811	70.000			
00:00:01	-1.984	70.000			
00:00:01	-1.797	70.000			
00:00:01	-1.747	70.000			
00:00:01	-1.654	70.000			
00:00:01	-1.452	70.000			
00:00:01	-1.773	70.000			
00:00:01	-1.671	70.000			
00:00:01	-1.787	70.000			
00:00:01	-1.785	70.000			
00:00:01	-1.527	70.000			
00:00:01	-1.778	70.000			
00:00:01	-1.906	70.000			
00:00:01	-2.000	70.000			
00:00:01	-2.197	70.000			
00:00:01	-1.918	70.000			
00:00:01	-1.651	70.000			
00:00:01	-0.963	70.000			
00:00:01	-0.072	70.000			
00:00:01	0.868	70.000			
00:00:01	2.512	70.000			
00:00:01	4.188	70.000			
00:00:01	5.972	70.000			
00:00:01	7.968	70.000			
00:00:01	9.414	70.000			
00:00:01	11.169	70.000			
00:00:01	12.572	70.000			
00:00:01	13.610	70.000			
00:00:01	14.583	70.000			
00:00:01	14.822	70.000			
00:00:01	15.077	70.000			
00:00:01	14.979	70.000			
00:00:01	14.452	70.000			
00:00:01	14.272	70.000			
00:00:01	13.587	70.000			
00:00:01	13.091	70.000			
00:00:01	12.456	70.000			
00:00:01	11.304	70.000			
00:00:01	10.633	34.439			
00:00:01	9.712	34.439			
00:00:01	8.938	34.439			
00:00:01	8.312	34.439			
00:00:01	7.391	34.444			
00:00:01	6.921	34.444			
00:00:01	6.054	34.444			
00:00:01	5.192	34.444			
00:00:01	4.524	34.444			
00:00:01	3.465	34.444			
00:00:01	2.865	34.444			
00:00:01	2.016	34.444			
00:00:01	1.094	34.444			
00:00:01	0.519	34.444			
00:00:01	-0.451	34.444			
00:00:01	-0.961	34.444			
00:00:01	-1.337	34.444			
00:00:01	-1.801	34.444			
00:00:01	-1.683	34.444			
00:00:01	-1.889	34.444			
00:00:01	-1.742	34.444			
00:00:01	-1.511	34.444			
00:00:01	-1.744	34.444			
00:00:01	-1.350	34.444			
00:00:01	-1.234	34.444			
00:00:01	-1.043	34.444			
00:00:01	-0.727	34.444			
00:00:01	-0.878	34.444			
00:00:01	-0.720	34.444			
00:00:01	-0.754	34.444			
00:00:01	-1.003	34.444			
00:00:01	-0.969	34.444			
00:00:01	-1.263	34.444			
00:00:01	-1.265	34.444			
00:00:01	-1.253	34.444			
00:00:01	-1.378	34.444			
00:00:02	-1.116	34.444			
00:00:02	-1.444	34.444			
00:00:02	-1.498	34.444			
00:00:02	-1.635	34.444			
00:00:02	-2.017	34.444			
00:00:02	-2.129	34.444			
00:00:02	-2.572	34.444			
00:00:02	-2.774	34.444			
00:00:02	-2.867	34.444			
00:00:02	-3.235	34.444			
00:00:02	-3.108	34.444			
00:00:02	-3.320	34.444			
00:00:02	-3.326	34.444			
00:00:02	-3.072	34.444			
00:00:02	-3.270	34.444			
00:00:02	-3.162	34.444			
00:00:02	-3.109	34.444			
00:00:02	-3.273	34.444			
00:00:02	-2.982	34.444			
00:00:02	-2.940	34.444			
00:00:02	-2.709	34.444			
00:00:02	-2.564	34.444			
00:00:02	-2.709	34.444			
00:00:02	-2.455	34.444			
00:00:02	-2.592	34.444			
00:00:02	-2.524	34.444			
00:00:02	-2.548	34.444			
00:00:02	-2.722	34.444			
00:00:02	-2.199	34.444			
00:00:02	-2.152	34.444			
00:00:02	-1.975	34.444			
00:00:02	-1.697	34.444			
00:00:02	-1.760	34.444			
00:00:02	-1.422	34.444			
00:00:02	-1.534	34.444			
00:00:02	-1.691	34.444			
00:00:02	-1.639	34.444			
00:00:02	-1.957	34.444			
00:00:02	-1.936	34.444			
00:00:02	-1.980	34.444			
00:00:02	-2.142	34.444			
00:00:02	-2.000	34.444			
00:00:02	-2.190	34.444			
00:00:02	-2.147	34.444			
00:00:02	-2.181	34.444			
00:00:02	-2.451	34.444			
00:00:02	-2.276	34.444			
00:00:02	-2.341	34.444			
00:00:02	-2.239	34.444			
00:00:02	-1.891	34.444			
00:00:02	-1.475	34.444			
00:00:02	-0.103	34.444			
00:00:02	1.074	34.444			
00:00:02	2.512	34.444			
00:00:02	4.361	34.444			
00:00:02	6.071	34.444			
00:00:02	8.299	34.444			
00:00:02	10.116	34.444			
00:00:02	11.687	34.444			
00:00:02	13.358	34.444			
00:00:02	14.243	34.444			
00:00:02	15.101	34.444			
00:00:02	15.432	34.444			
00:00:02	15.421	34.444			
00:00:02	15.534	34.444			
00:00:02	14.959	34.444			
00:00:02	14.593	34.444			
00:00:02	13.950	34.444			
00:00:02	12.765	34.444			
00:00:02	12.068	34.444			
00:00:02	10.974	34.444			
00:00:02	10.133	34.444			
00:00:02	9.440	71.776			
00:00:02	8.432	71.776			
00:00:02	7.806	71.776			
00:00:02	6.883	71.776			
00:00:02	6.010	71.781			
00:00:02	5.388	71.781			
00:00:02	4.221	71.781			
00:00:02	3.257	71.781			
00:00:02	2.253	71.781			
00:00:02	1.291	71.781			
00:00:02	0.836	71.781			
00:00:02	-0.018	71.781			
00:00:02	-0.508	71.781			
00:00:02	-1.063	71.781			
00:00:02	-1.572	71.781			
00:00:02	-1.742	71.781			
00:00:02	-2.225	71.781			
00:00:02	-2.367	71.781			
00:00:02	-2.238	71.781			
00:00:02	-2.286	71.781			
00:00:02	-1.840	71.781			
00:00:02	-1.623	71.781			
00:00:02	-1.366	71.781			
00:00:02	-0.999	71.781			
00:00:02	-1.054	71.781			
00:00:02	-0.732	71.781			
00:00:02	-0.690	71.781			
00:00:02	-0.706	71.781			
00:00:02	-0.445	71.781			
00:00:02	-0.703	71.781			
00:00:02	-0.511	71.781			
00:00:02	-0.542	71.781			
00:00:02	-0.703	71.781			
00:00:02	-0.571	71.781			
00:00:02	-1.030	71.781			
00:00:02	-1.095	71.781			
00:00:02	-1.269	71.781			
00:00:02	-1.649	71.781			
00:00:02	-1.560	71.781			
00:00:02	-2.028	71.781			
00:00:02	-2.281	71.781			
00:00:02	-2.340	71.781			
00:00:02	-2.730	71.781			
00:00:02	-2.664	71.781			
00:00:02	-2.857	71.781			
00:00:02	-3.212	71.781			
00:00:02	-3.129	71.781			
00:00:02	-3.490	71.781			
00:00:02	-3.199	71.781			
00:00:02	-3.175	71.781			
00:00:02	-3.330	71.781			
00:00:02	-3.035	71.781			
00:00:02	-3.170	71.781			
00:00:02	-3.063	71.781			
00:00:02	-3.136	71.781			
00:00:02	-3.320	71.781			
00:00:03	-3.023	71.781			
00:00:03	-2.997	71.781			
00:00:03	-2.679	71.781			
00:00:03	-2.279	71.781			
00:00:03	-2.294	71.781			
00:00:03	-1.976	71.781			
00:00:03	-2.006	71.781			
00:00:03	-1.966	71.781			
00:00:03	-1.755	71.781			
00:00:03	-1.934	71.781			
00:00:03	-1.649	71.781			
00:00:03	-1.513	71.781			
00:00:03	-1.391	71.781			
00:00:03	-1.146	71.781			
00:00:03	-1.434	71.781			
00:00:03	-1.425	71.781			
00:00:03	-1.634	71.781			
00:00:03	-1.849	71.781			
00:00:03	-1.563	71.781			
00:00:03	-1.749	71.781			
00:00:03	-1.762	71.781			
00:00:03	-1.862	71.781			
00:00:03	-2.334	71.781			
00:00:03	-2.404	71.781			
00:00:03	-2.637	71.781			
00:00:03	-2.474	71.781			
00:00:03	-2.121	71.781			
00:00:03	-2.102	71.781			
00:00:03	-1.212	71.781			
00:00:03	-0.458	71.781			
00:00:03	0.790	71.781			
00:00:03	2.434	71.781			
00:00:03	3.918	71.781			
00:00:03	6.054	71.781			
00:00:03	8.050	71.781			
00:00:03	9.852	71.781			
00:00:03	11.730	71.781			
00:00:03	13.021	71.781			
00:00:03	14.580	71.781			
00:00:03	15.614	71.781			
00:00:03	15.916	71.781			
00:00:03	16.172	71.781			
00:00:03	15.732	71.781			
00:00:03	15.428	71.781			
00:00:03	14.992	71.781			
00:00:03	14.136	71.781			
00:00:03	13.502	71.781			
00:00:03	12.472	71.781			
00:00:03	11.681	71.781			
00:00:03	10.833	71.781			
00:00:03	9.469	71.781			
00:00:03	8.709	71.781			
00:00:03	7.811	72.453			
00:00:03	6.915	72.453			
00:00:03	6.233	72.453			
00:00:03	5.219	72.453			
00:00:03	4.554	72.458			
00:00:03	3.759	72.458			
00:00:03	2.820	72.458			
00:00:03	2.186	72.458			
00:00:03	1.129	72.458			
00:00:03	0.369	72.458			
00:00:03	-0.475	72.458			
00:00:03	-1.348	72.458			
00:00:03	-1.556	72.458			
00:00:03	-2.002	72.458			
00:00:03	-2.054	72.458			
00:00:03	-2.015	72.458			
00:00:03	-2.109	72.458			
00:00:03	-1.741	72.458			
00:00:03	-1.749	72.458			
00:00:03	-1.567	72.458			
00:00:03	-1.108	72.458			
00:00:03	-1.379	72.458			
00:00:03	-1.219	72.458			
00:00:03	-1.378	72.458			
00:00:03	-1.609	72.458			
00:00:03	-1.551	72.458			
00:00:03	-1.944	72.458			
00:00:03	-1.942	72.458			
00:00:03	-2.010	72.458			
00:00:03	-2.073	72.458			
00:00:03	-1.667	72.458			
00:00:03	-1.828	72.458			
00:00:03	-1.726	72.458			
00:00:03	-1.698	72.458			
00:00:03	-1.816	72.458			
00:00:03	-1.446	72.458			
00:00:03	-1.581	72.458			
00:00:03	-1.646	72.458			
00:00:03	-1.661	72.458			
00:00:03	-1.851	72.458			
00:00:03	-1.785	72.458			
00:00:03	-2.004	72.458			
00:00:03	-2.116	72.458			
00:00:03	-2.061	72.458			
00:00:03	-2.431	72.458			
00:00:03	-2.414	72.458			
00:00:03	-2.470	72.458			
00:00:03	-2.619	72.458			
00:00:03	-2.387	72.458			
00:00:03	-2.526	72.458			
00:00:03	-2.371	72.458			
00:00:03	-2.414	72.458			
00:00:03	-2.588	72.458			
00:00:03	-2.469	72.458			
00:00:03	-2.600	72.458			
00:00:03	-2.423	72.458			
00:00:03	-2.321	72.458			
00:00:03	-2.433	72.458			
00:00:03	-2.106	72.458			
00:00:03	-2.137	72.458			
00:00:03	-1.939	72.458			
00:00:03	-1.622	72.458			
00:00:03	-1.655	72.458			
00:00:03	-1.410	72.458			
00:00:03	-1.402	72.458			
00:00:03	-1.521	72.458			
00:00:03	-1.414	72.458			
00:00:03	-1.734	72.458			
00:00:03	-1.602	72.458			
00:00:03	-1.716	72.458			
00:00:03	-1.948	72.458			
00:00:03	-1.802	72.458			
00:00:03	-2.102	72.458			
00:00:03	-2.098	72.458			
00:00:03	-2.099	72.458			
00:00:03	-2.329	72.458			
00:00:04	-2.159	72.458			
00:00:04	-2.281	72.458			
00:00:04	-2.289	72.458			
00:00:04	-2.326	72.458			
00:00:04	-2.577	72.458			
00:00:04	-2.225	72.458			
00:00:04	-1.972	72.458			
00:00:04	-1.336	72.458			
00:00:04	-0.126	72.458			
00:00:04	0.927	72.458			
00:00:04	2.523	72.458			
00:00:04	3.994	72.458			
00:00:04	5.593	72.458			
00:00:04	7.597	72.458			
00:00:04	9.134	72.458			
00:00:04	10.850	72.458			
00:00:04	12.053	72.458			
00:00:04	12.850	72.458			
00:00:04	13.799	72.458			
00:00:04	14.153	72.458			
00:00:04	14.378	72.458			
00:00:04	14.453	72.458			
00:00:04	14.227	72.458			
00:00:04	14.327	72.458			
00:00:04	13.813	72.458			
00:00:04	13.285	72.458			
00:00:04	12.682	72.458			
00:00:04	11.634	72.458			
00:00:04	11.014	72.458			
00:00:04	10.231	72.458			
00:00:04	9.442	72.458			
00:00:04	8.882	72.458			
00:00:04	7.877	71.111			
00:00:04	7.275	71.111			
00:00:04	6.340	71.111			
00:00:04	5.333	71.111			
00:00:04	4.605	71.116			
00:00:04	3.366	71.116			
00:00:04	2.539	71.116			
00:00:04	1.725	71.116			
00:00:04	0.854	71.116			
00:00:04	0.552	71.116			
00:00:04	-0.171	71.116			
00:00:04	-0.526	71.116			
00:00:04	-0.794	71.116			
00:00:04	-1.239	71.116			
00:00:04	-1.073	71.116			
00:00:04	-1.045	71.116			
00:00:04	-0.805	71.116			
00:00:04	-0.362	71.116			
00:00:04	-0.343	71.116			
00:00:04	0.089	71.116			
00:00:04	0.142	71.116			
00:00:04	0.175	71.116			
00:00:04	0.482	71.116			
00:00:04	0.116	71.116			
00:00:04	0.229	71.116			
00:00:04	0.229	71.116			
00:00:04	0.222	71.116			
00:00:04	0.403	71.116			
00:00:04	-0.010	71.116			
00:00:04	0.049	71.116			
00:00:04	-0.067	71.116			
00:00:04	-0.624	71.116			
00:00:04	-0.673	71.116			
00:00:04	-0.903	71.116			
00:00:04	-0.935	71.116			
00:00:04	-0.881	71.116			
00:00:04	-1.232	71.116			
00:00:04	-1.107	71.116			
00:00:04	-1.514	71.116			
00:00:04	-1.785	71.116			
00:00:04	-1.680	71.116			
00:00:04	-2.047	71.116			
00:00:04	-2.131	71.116			
00:00:04	-2.345	71.116			
00:00:04	-2.486	71.116			
00:00:04	-2.457	71.116			
00:00:04	-2.793	71.116			
00:00:04	-2.821	71.116			
00:00:04	-2.782	71.116			
00:00:04	-2.954	71.116			
00:00:04	-2.624	71.116			
00:00:04	-2.798	71.116			
00:00:04	-2.643	71.116			
00:00:04	-2.495	71.116			
00:00:04	-2.542	71.116			
00:00:04	-2.108	71.116			
00:00:04	-2.176	71.116			
00:00:04	-2.035	71.116			
00:00:04	-1.680	71.116			
00:00:04	-1.866	71.116			
00:00:04	-1.552	71.116			
00:00:04	-1.524	71.116			
00:00:04	-1.527	71.116			
00:00:04	-1.270	71.116			
00:00:04	-1.369	71.116			
00:00:04	-1.089	71.116			
00:00:04	-1.162	71.116			
00:00:04	-1.282	71.116			
00:00:04	-1.249	71.116			
00:00:04	-1.640	71.116			
00:00:04	-1.706	71.116			
00:00:04	-1.692	71.116			
00:00:04	-1.777	71.116			
00:00:04	-1.560	71.116			
00:00:04	-1.854	71.116			
00:00:04	-1.935	71.116			
00:00:04	-2.064	71.116			
00:00:04	-2.418	71.116			
00:00:04	-2.157	71.116			
00:00:04	-2.207	71.116			
00:00:04	-2.019	71.116			
00:00:04	-1.379	71.116			
00:00:04	-0.804	71.116			
00:00:04	0.453	71.116			
00:00:04	1.820	71.116			
00:00:04	3.511	71.116			
00:00:04	5.528	71.116			
00:00:04	6.955	71.116			
00:00:04	8.865	71.116			
00:00:04	10.398	71.116			
00:00:04	11.601	71.116			
00:00:04	13.105	71.116			
00:00:04	13.910	71.116			
00:00:04	14.652	71.116			
00:00:04	15.008	71.116			
00:00:04	14.866	71.116			
00:00:05	14.952	71.116			
00:00:05	14.297	71.116			
00:00:05	13.654	71.116			
00:00:05	13.004	71.116			
00:00:05	11.981	71.116			
00:00:05	11.532	71.116			
00:00:05	10.709	71.116			
00:00:05	9.886	71.116			
00:00:05	9.272	72.453			
00:00:05	8.162	72.453			
00:00:05	7.325	72.453			
00:00:05	6.469	72.453			
00:00:05	5.516	72.458			
00:00:05	4.736	72.458			
00:00:05	3.644	72.458			
00:00:05	2.926	72.458			
00:00:05	2.142	72.458			
00:00:05	1.155	72.458			
00:00:05	0.715	72.458			
00:00:05	-0.101	72.458			
00:00:05	-0.594	72.458			
00:00:05	-0.798	72.458			
00:00:05	-1.202	72.458			
00:00:05	-1.173	72.458			
00:00:05	-1.393	72.458			
00:00:05	-1.296	72.458			
00:00:05	-0.901	72.458			
00:00:05	-0.982	72.458			
00:00:05	-0.713	72.458			
00:00:05	-0.691	72.458			
00:00:05	-0.592	72.458			
00:00:05	-0.331	72.458			
00:00:05	-0.549	72.458			
00:00:05	-0.397	72.458			
00:00:05	-0.498	72.458			
00:00:05	-0.836	72.458			
00:00:05	-0.715	72.458			
00:00:05	-0.933	72.458			
00:00:05	-1.101	72.458			
00:00:05	-1.279	72.458			
00:00:05	-1.553	72.458			
00:00:05	-1.336	72.458			
00:00:05	-1.611	72.458			
00:00:05	-1.543	72.458			
00:00:05	-1.383	72.458			
00:00:05	-1.401	72.458			
00:00:05	-1.178	72.458			
00:00:05	-1.377	72.458			
00:00:05	-1.370	72.458			
00:00:05	-1.241	72.458			
00:00:05	-1.681	72.458			
00:00:05	-1.800	72.458			
00:00:05	-1.997	72.458			
00:00:05	-2.100	72.458			
00:00:05	-1.901	72.458			
00:00:05	-2.216	72.458			
00:00:05	-2.179	72.458			
00:00:05	-2.334	72.458			
00:00:05	-2.654	72.458			
00:00:05	-2.588	72.458			
00:00:05	-2.875	72.458			
00:00:05	-2.733	72.458			
00:00:05	-2.629	72.458			
00:00:05	-2.798	72.458			
00:00:05	-2.499	72.458			
00:00:05	-2.475	72.458			
00:00:05	-2.300	72.458			
00:00:05	-2.082	72.458			
00:00:05	-2.309	72.458			
00:00:05	-2.143	72.458			
00:00:05	-2.170	72.458			
00:00:05	-2.069	72.458			
00:00:05	-1.767	72.458			
00:00:05	-1.766	72.458			
00:00:05	-1.478	72.458			
00:00:05	-1.498	72.458			
00:00:05	-1.547	72.458			
00:00:05	-1.293	72.458			
00:00:05	-1.508	72.458			
00:00:05	-1.365	72.458			
00:00:05	-1.304	72.458			
00:00:05	-1.478	72.458			
00:00:05	-1.193	72.458			
00:00:05	-1.318	72.458			
00:00:05	-1.243	72.458			
00:00:05	-1.292	72.458			
00:00:05	-1.601	72.458			
00:00:05	-1.312	72.458			
00:00:05	-1.222	72.458			
00:00:05	-0.824	72.458			
00:00:05	0.044	72.458			
00:00:05	0.816	72.458			
00:00:05	2.358	72.458			
00:00:05	3.762	72.458			
00:00:05	5.337	72.458			
00:00:05	7.422	72.458			
00:00:05	9.142	72.458			
00:00:05	11.221	72.458			
00:00:05	12.825	72.458			
00:00:05	13.952	72.458			
00:00:05	15.260	72.458			
00:00:05	15.745	72.458			
00:00:05	16.136	72.458			
00:00:05	16.185	72.458			
00:00:05	15.847	72.458			
00:00:05	15.645	72.458			
00:00:05	14.811	72.458			
00:00:05	14.181	72.458			
00:00:05	13.572	72.458			
00:00:05	12.516	72.458			
00:00:05	11.784	72.458			
00:00:05	10.763	72.458			
00:00:05	9.931	73.846			
00:00:05	9.250	73.846			
00:00:05	8.218	73.846			
00:00:05	7.751	73.846			
00:00:05	6.889	73.851			
00:00:05	5.986	73.851			
00:00:05	5.292	73.851			
00:00:05	4.234	73.851			
00:00:05	3.506	73.851			
00:00:05	2.571	73.851			
00:00:05	1.481	73.851			
00:00:05	0.744	73.851			
00:00:05	-0.255	73.851			
00:00:05	-0.551	73.851			
00:00:05	-0.773	73.851			
00:00:05	-1.265	73.851			
00:00:06	-1.250	73.851			
00:00:06	-1.491	73.851			
00:00:06	-1.452	73.851			
00:00:06	-1.234	73.851			
00:00:06	-1.224	73.851			
00:00:06	-0.894	73.851			
00:00:06	-0.970	73.851			
00:00:06	-0.850	73.851			
00:00:06	-0.435	73.851			
00:00:06	-0.487	73.851			
00:00:06	-0.242	73.851			
00:00:06	-0.154	73.851			
00:00:06	-0.041	73.851			
00:00:06	0.261	73.851			
00:00:06	0.109	73.851			
00:00:06	0.334	73.851			
00:00:06	0.339	73.851			
00:00:06	-0.012	73.851			
00:00:06	-0.034	73.851			
00:00:06	-0.518	73.851			
00:00:06	-0.679	73.851			
00:00:06	-0.756	73.851			
00:00:06	-1.138	73.851			
00:00:06	-1.279	73.851			
00:00:06	-1.715	73.851			
00:00:06	-1.736	73.851			
00:00:06	-1.582	73.851			
00:00:06	-1.851	73.851			
00:00:06	-1.698	73.851			
00:00:06	-1.892	73.851			
00:00:06	-1.995	73.851			
00:00:06	-1.967	73.851			
00:00:06	-2.372	73.851			
00:00:06	-2.404	73.851			
00:00:06	-2.503	73.851			
00:00:06	-2.746	73.851			
00:00:06	-2.449	73.851			
00:00:06	-2.721	73.851			
00:00:06	-2.640	73.851			
00:00:06	-2.584	73.851			
00:00:06	-2.821	73.851			
00:00:06	-2.704	73.851			
00:00:06	-2.837	73.851			
00:00:06	-2.600	73.851			
00:00:06	-2.432	73.851			
00:00:06	-2.478	73.851			
00:00:06	-2.142	73.851			
00:00:06	-2.185	73.851			
00:00:06	-2.035	73.851			
00:00:06	-1.738	73.851			
00:00:06	-1.830	73.851			
00:00:06	-1.588	73.851			
00:00:06	-1.453	73.851			
00:00:06	-1.312	73.851			
00:00:06	-0.951	73.851			
00:00:06	-1.178	73.851			
00:00:06	-0.984	73.851			
00:00:06	-1.018	73.851			
00:00:06	-1.262	73.851			
00:00:06	-1.097	73.851			
00:00:06	-1.341	73.851			
00:00:06	-1.334	73.851			
00:00:06	-1.402	73.851			
00:00:06	-1.688	73.851			
00:00:06	-1.332	73.851			
00:00:06	-1.366	73.851			
00:00:06	-0.805	73.851			
00:00:06	0.211	73.851			
00:00:06	1.158	73.851			
00:00:06	2.964	73.851			
00:00:06	4.680	73.851			
00:00:06	6.756	73.851			
00:00:06	8.885	73.851			
00:00:06	10.469	73.851			
00:00:06	12.267	73.851			
00:00:06	13.645	73.851			
00:00:06	14.721	73.851			
00:00:06	15.750	73.851			
00:00:06	15.951	73.851			
00:00:06	16.120	73.851			
00:00:06	15.830	73.851			
00:00:06	15.188	73.851			
00:00:06	14.773	73.851			
00:00:06	13.909	73.851			
00:00:06	13.247	73.851			
00:00:06	12.572	73.851			
00:00:06	11.500	73.851			
00:00:06	10.941	73.851			
00:00:06	9.917	73.846			
00:00:06	9.008	73.846			
00:00:06	8.512	73.846			
00:00:06	7.846	73.846			
00:00:06	7.496	73.851			
00:00:06	6.869	73.851			
00:00:06	6.203	73.851			
00:00:06	5.713	73.851			
00:00:06	4.631	73.851			
00:00:06	3.819	73.851			
00:00:06	2.831	73.851			
00:00:06	1.846	73.851			
00:00:06	1.238	73.851			
00:00:06	0.353	73.851			
00:00:06	-0.105	73.851			
00:00:06	-0.384	73.851			
00:00:06	-0.740	73.851			
00:00:06	-0.605	73.851			
00:00:06	-0.709	73.851			
00:00:06	-0.403	73.851			
00:00:06	-0.096	73.851			
00:00:06	-0.103	73.851			
00:00:06	0.252	73.851			
00:00:06	0.256	73.851			
00:00:06	0.400	73.851			
00:00:06	0.604	73.851			
00:00:06	0.429	73.851			
00:00:06	0.632	73.851			
00:00:06	0.614	73.851			
00:00:06	0.394	73.851			
00:00:06	0.488	73.851			
00:00:06	0.073	73.851			
00:00:06	-0.022	73.851			
00:00:06	-0.170	73.851			
00:00:06	-0.318	73.851			
00:00:06	-0.262	73.851			
00:00:06	-0.690	73.851			
00:00:06	-0.877	73.851			
00:00:06	-1.079	73.851			
00:00:06	-1.589	73.851			
00:00:07	-1.544	73.851			
00:00:07	-1.758	73.851			
00:00:07	-1.929	73.851			
00:00:07	-2.098	73.851			
00:00:07	-2.651	73.851			
00:00:07	-2.585	73.851			
00:00:07	-2.665	73.851			
00:00:07	-2.745	73.851			
00:00:07	-2.558	73.851			
00:00:07	-2.836	73.851			
00:00:07	-2.816	73.851			
00:00:07	-2.845	73.851			
00:00:07	-2.979	73.851			
00:00:07	-2.660	73.851			
00:00:07	-2.643	73.851			
00:00:07	-2.418	73.851			
00:00:07	-2.334	73.851			
00:00:07	-2.343	73.851			
00:00:07	-1.801	73.851			
00:00:07	-1.832	73.851			
00:00:07	-1.610	73.851			
00:00:07	-1.232	73.851			
00:00:07	-1.124	73.851			
00:00:07	-0.894	73.851			
00:00:07	-0.964	73.851			
00:00:07	-0.833	73.851			
00:00:07	-0.506	73.851			
00:00:07	-0.680	73.851			
00:00:07	-0.539	73.851			
00:00:07	-0.751	73.851			
00:00:07	-0.767	73.851			
00:00:07	-0.491	73.851			
00:00:07	-0.869	73.851			
00:00:07	-0.884	73.851			
00:00:07	-0.973	73.851			
00:00:07	-1.052	73.851			
00:00:07	-0.844	73.851			
00:00:07	-0.924	73.851			
00:00:07	-0.406	73.851			
00:00:07	0.320	73.851			
00:00:07	1.176	73.851			
00:00:07	2.715	73.851			
00:00:07	4.083	73.851			
00:00:07	5.872	73.851			
00:00:07	7.921	73.851			
00:00:07	9.510	73.851			
00:00:07	11.335	73.851			
00:00:07	12.729	73.851			
00:00:07	14.003	73.851			
00:00:07	15.155	73.851			
00:00:07	15.657	73.851			
00:00:07	16.217	73.851			
00:00:07	16.380	73.851			
00:00:07	16.100	73.851			
00:00:07	15.944	73.851			
00:00:07	15.199	73.851			
00:00:07	14.648	73.851			
00:00:07	13.929	73.851			
00:00:07	13.191	73.851			
00:00:07	12.765	73.851			
00:00:07	11.851	76.040			
00:00:07	11.089	76.040			
00:00:07	10.308	76.040			
00:00:07	9.188	76.040			
00:00:07	8.589	76.045			
00:00:07	7.632	76.045			
00:00:07	6.911	76.045			
00:00:07	6.158	76.045			
00:00:07	5.006	76.045			
00:00:07	4.284	76.045			
00:00:07	3.337	76.045			
00:00:07	2.387	76.045			
00:00:07	1.733	76.045			
00:00:07	0.852	76.045			
00:00:07	0.410	76.045			
00:00:07	-0.206	76.045			
00:00:07	-0.628	76.045			
00:00:07	-0.528	76.045			
00:00:07	-0.680	76.045			
00:00:07	-0.252	76.045			
00:00:07	0.228	76.045			
00:00:07	0.496	76.045			
00:00:07	1.006	76.045			
00:00:07	1.004	76.045			
00:00:07	1.309	76.045			
00:00:07	1.693	76.045			
00:00:07	1.655	76.045			
00:00:07	1.912	76.045			
00:00:07	1.630	76.045			
00:00:07	1.486	76.045			
00:00:07	1.477	76.045			
00:00:07	1.087	76.045			
00:00:07	1.209	76.045			
00:00:07	1.049	76.045			
00:00:07	0.686	76.045			
00:00:07	0.550	76.045			
00:00:07	0.050	76.045			
00:00:07	-0.011	76.045			
00:00:07	-0.294	76.045			
00:00:07	-0.684	76.045			
00:00:07	-0.692	76.045			
00:00:07	-1.026	76.045			
00:00:07	-1.132	76.045			
00:00:07	-1.326	76.045			
00:00:07	-1.661	76.045			
00:00:07	-1.697	76.045			
00:00:07	-2.107	76.045			
00:00:07	-2.294	76.045			
00:00:07	-2.231	76.045			
00:00:07	-2.385	76.045			
00:00:07	-2.143	76.045			
00:00:07	-2.279	76.045			
00:00:07	-2.234	76.045			
00:00:07	-1.995	76.045			
00:00:07	-2.085	76.045			
00:00:07	-1.623	76.045			
00:00:07	-1.404	76.045			
00:00:07	-1.403	76.045			
00:00:07	-1.131	76.045			
00:00:07	-1.214	76.045			
00:00:07	-0.904	76.045			
00:00:07	-0.663	76.045			
00:00:07	-0.781	76.045			
00:00:07	-0.694	76.045			
00:00:07	-0.967	76.045			
00:00:07	-0.809	76.045			
00:00:07	-0.781	76.045			
00:00:07	-1.033	76.045			
00:00:08	-0.773	76.045			
00:00:08	-0.938	76.045			
00:00:08	-0.988	76.045			
00:00:08	-0.977	76.045			
00:00:08	-1.384	76.045			
00:00:08	-1.279	76.045			
00:00:08	-1.581	76.045			
00:00:08	-1.766	76.045			
00:00:08	-1.462	76.045			
00:00:08	-1.475	76.045			
00:00:08	-0.915	76.045			
00:00:08	-0.463	76.045			
00:00:08	0.002	76.045			
00:00:08	1.148	76.045			
00:00:08	2.208	76.045			
00:00:08	3.734	76.045			
00:00:08	5.457	76.045			
00:00:08	7.022	76.045			
00:00:08	9.046	76.045			
00:00:08	10.469	76.045			
00:00:08	12.022	76.045			
00:00:08	13.507	76.045			
00:00:08	14.185	76.045			
00:00:08	14.910	76.045			
00:00:08	15.197	76.045			
00:00:08	15.334	76.045			
00:00:08	15.343	76.045			
00:00:08	14.647	76.045			
00:00:08	14.336	76.045			
00:00:08	13.553	76.045			
00:00:08	12.534	76.045			
00:00:08	11.737	76.045			
00:00:08	10.591	76.045			
00:00:08	9.856	76.045			
00:00:08	8.949	76.045			
00:00:08	7.863	76.045			
00:00:08	7.180	76.040			
00:00:08	6.280	76.040			
00:00:08	5.656	76.040			
00:00:08	4.929	76.040			
00:00:08	3.781	76.045			
00:00:08	3.083	76.045			
00:00:08	2.077	76.045			
00:00:08	1.419	76.045			
00:00:08	0.941	76.045			
00:00:08	-0.002	76.045			
00:00:08	-0.437	76.045			
00:00:08	-0.953	76.045			
00:00:08	-1.303	76.045			
00:00:08	-1.031	76.045			
00:00:08	-1.072	76.045			
00:00:08	-0.586	76.045			
00:00:08	-0.141	76.045			
00:00:08	0.211	76.045			
00:00:08	0.935	76.045			
00:00:08	1.154	76.045			
00:00:08	1.642	76.045			
00:00:08	1.992	76.045			
00:00:08	2.129	76.045			
00:00:08	2.491	76.045			
00:00:08	2.412	76.045			
00:00:08	2.590	76.045			
00:00:08	2.831	76.045			
00:00:08	2.592	76.045			
00:00:08	2.741	76.045			
00:00:08	2.544	76.045			
00:00:08	2.343	76.045			
00:00:08	2.148	76.045			
00:00:08	1.605	76.045			
00:00:08	1.418	76.045			
00:00:08	0.847	76.045			
00:00:08	0.351	76.045			
00:00:08	0.130	76.045			
00:00:08	-0.511	76.045			
00:00:08	-0.616	76.045			
00:00:08	-0.808	76.045			
00:00:08	-1.195	76.045			
00:00:08	-1.070	76.045			
00:00:08	-1.423	76.045			
00:00:08	-1.470	76.045			
00:00:08	-1.428	76.045			
00:00:08	-1.627	76.045			
00:00:08	-1.433	76.045			
00:00:08	-1.610	76.045			
00:00:08	-1.580	76.045			
00:00:08	-1.398	76.045			
00:00:08	-1.537	76.045			
00:00:08	-1.178	76.045			
00:00:08	-1.126	76.045			
00:00:08	-1.046	76.045			
00:00:08	-0.766	76.045			
00:00:08	-0.873	76.045			
00:00:08	-0.656	76.045			
00:00:08	-0.553	76.045			
00:00:08	-0.578	76.045			
00:00:08	-0.357	76.045			
00:00:08	-0.631	76.045			
00:00:08	-0.450	76.045			
00:00:08	-0.435	76.045			
00:00:08	-0.619	76.045			
00:00:08	-0.278	76.045			
00:00:08	-0.385	76.045			
00:00:08	-0.337	76.045			
00:00:08	-0.350	76.045			
00:00:08	-0.679	76.045			
00:00:08	-0.614	76.045			
00:00:08	-0.954	76.045			
00:00:08	-1.061	76.045			
00:00:08	-0.888	76.045			
00:00:08	-0.909	76.045			
00:00:08	-0.235	76.045			
00:00:08	0.295	76.045			
00:00:08	1.137	76.045			
00:00:08	2.476	76.045			
00:00:08	3.625	76.045			
00:00:08	5.297	76.045			
00:00:08	6.961	76.045			
00:00:08	8.593	76.045			
00:00:08	10.304	76.045			
00:00:08	11.597	76.045			
00:00:08	13.248	76.045			
00:00:08	14.506	76.045			
00:00:08	15.086	76.045			
00:00:08	15.649	76.045			
00:00:08	15.532	76.045			
00:00:08	15.544	76.045			
00:00:08	15.487	76.045			
00:00:08	14.983	76.045			
00:00:09	14.559	76.045			
00:00:09	13.838	76.045			
00:00:09	13.172	76.045			
00:00:09	12.508	76.045			
00:00:09	11.394	76.045			
00:00:09	10.724	76.045			
00:00:09	9.808	76.045			
00:00:09	8.796	76.045			
00:00:09	8.159	76.800			
00:00:09	7.114	76.800			
00:00:09	6.389	76.800			
00:00:09	5.550	76.800			
00:00:09	4.440	76.805			
00:00:09	3.819	76.805			
00:00:09	2.850	76.805			
00:00:09	2.183	76.805			
00:00:09	1.739	76.805			
00:00:09	1.119	76.805			
00:00:09	0.923	76.805			
00:00:09	0.425	76.805			
00:00:09	0.104	76.805			
00:00:09	-0.128	76.805			
00:00:09	-0.531	76.805			
00:00:09	-0.239	76.805			
00:00:09	-0.201	76.805			
00:00:09	-0.114	76.805			
00:00:09	0.266	76.805			
00:00:09	0.191	76.805			
00:00:09	0.557	76.805			
00:00:09	0.784	76.805			
00:00:09	0.759	76.805			
00:00:09	0.980	76.805			
00:00:09	0.829	76.805			
00:00:09	1.107	76.805			
00:00:09	1.121	76.805			
00:00:09	0.721	76.805			
00:00:09	0.655	76.805			
00:00:09	0.175	76.805			
00:00:09	0.079	76.805			
00:00:09	0.087	76.805			
00:00:09	-0.177	76.805			
00:00:09	-0.144	76.805			
00:00:09	-0.390	76.805			
00:00:09	-0.646	76.805			
00:00:09	-0.781	76.805			
00:00:09	-1.235	76.805			
00:00:09	-1.189	76.805			
00:00:09	-1.576	76.805			
00:00:09	-1.922	76.805			
00:00:09	-1.826	76.805			
00:00:09	-1.895	76.805			
00:00:09	-1.631	76.805			
00:00:09	-1.636	76.805			
00:00:09	-1.620	76.805			
00:00:09	-1.284	76.805			
00:00:09	-1.467	76.805			
00:00:09	-1.392	76.805			
00:00:09	-1.387	76.805			
00:00:09	-1.498	76.805			
00:00:09	-1.243	76.805			
00:00:09	-1.434	76.805			
00:00:09	-1.216	76.805			
00:00:09	-0.910	76.805			
00:00:09	-1.087	76.805			
00:00:09	-0.690	76.805			
00:00:09	-0.675	76.805			
00:00:09	-0.646	76.805			
00:00:09	-0.572	76.805			
00:00:09	-0.937	76.805			
00:00:09	-0.869	76.805			
00:00:09	-0.965	76.805			
00:00:09	-1.012	76.805			
00:00:09	-0.749	76.805			
00:00:09	-0.901	76.805			
00:00:09	-0.834	76.805			
00:00:09	-0.753	76.805			
00:00:09	-0.838	76.805			
00:00:09	-0.446	76.805			
00:00:09	-0.322	76.805			
00:00:09	0.282	76.805			
00:00:09	1.181	76.805			
00:00:09	2.182	76.805			
00:00:09	3.729	76.805			
00:00:09	5.143	76.805			
00:00:09	6.906	76.805			
00:00:09	8.746	76.805			
00:00:09	10.092	76.805			
00:00:09	11.793	76.805			
00:00:09	12.840	76.805			
00:00:09	13.570	76.805			
00:00:09	14.512	76.805			
00:00:09	14.834	76.805			
00:00:09	15.230	76.805			
00:00:09	14.982	76.805			
00:00:09	14.656	76.805			
00:00:09	14.563	76.805			
00:00:09	13.748	76.805			
00:00:09	13.194	76.805			
00:00:09	12.653	76.805			
00:00:09	11.717	76.805			
00:00:09	11.176	80.842			
00:00:09	10.127	80.842			
00:00:09	9.475	80.842			
00:00:09	8.840	80.842			
00:00:09	7.796	80.847			
00:00:09	7.231	80.847			
00:00:09	6.413	80.847			
00:00:09	5.649	80.847			
00:00:09	4.970	80.847			
00:00:09	3.872	80.847			
00:00:09	3.126	80.847			
00:00:09	2.262	80.847			
00:00:09	1.448	80.847			
00:00:09	0.994	80.847			
00:00:09	0.141	80.847			
00:00:09	-0.134	80.847			
00:00:09	-0.402	80.847			
00:00:09	-0.622	80.847			
00:00:09	-0.373	80.847			
00:00:09	-0.359	80.847			
00:00:09	-0.104	80.847			
00:00:09	0.062	80.847			
00:00:09	-0.042	80.847			
00:00:09	0.408	80.847			
00:00:09	0.463	80.847			
00:00:09	0.584	80.847			
00:00:09	0.746	80.847			
00:00:09	0.473	80.847			
00:00:10	0.606	80.847			
00:00:10	0.377	80.847			
00:00:10	0.272	80.847			
00:00:10	0.392	80.847			
00:00:10	0.123	80.847			
00:00:10	0.175	80.847			
00:00:10	0.089	80.847			
00:00:10	-0.048	80.847			
00:00:10	0.200	80.847			
00:00:10	-0.125	80.847			
00:00:10	-0.198	80.847			
00:00:10	-0.437	80.847			
00:00:10	-0.864	80.847			
00:00:10	-0.881	80.847			
00:00:10	-1.316	80.847			
00:00:10	-1.361	80.847			
00:00:10	-1.475	80.847			
00:00:10	-1.772	80.847			
00:00:10	-1.782	80.847			
00:00:10	-2.054	80.847			
00:00:10	-1.946	80.847			
00:00:10	-1.679	80.847			
00:00:10	-1.935	80.847			
00:00:10	-1.865	80.847			
00:00:10	-2.044	80.847			
00:00:10	-1.963	80.847			
00:00:10	-1.614	80.847			
00:00:10	-1.794	80.847			
00:00:10	-1.539	80.847			
00:00:10	-1.310	80.847			
00:00:10	-1.342	80.847			
00:00:10	-1.097	80.847			
00:00:10	-1.201	80.847			
00:00:10	-1.008	80.847			
00:00:10	-0.949	80.847			
00:00:10	-1.109	80.847			
00:00:10	-0.830	80.847			
00:00:10	-0.906	80.847			
00:00:10	-0.912	80.847			
00:00:10	-0.916	80.847			
00:00:10	-1.114	80.847			
00:00:10	-0.794	80.847			
00:00:10	-0.876	80.847			
00:00:10	-0.836	80.847			
00:00:10	-0.626	80.847			
00:00:10	-0.766	80.847			
00:00:10	-0.531	80.847			
00:00:10	-0.485	80.847			
00:00:10	-0.092	80.847			
00:00:10	0.832	80.847			
00:00:10	1.606	80.847			
00:00:10	3.022	80.847			
00:00:10	4.548	80.847			
00:00:10	6.166	80.847			
00:00:10	8.086	80.847			
00:00:10	9.610	80.847			
00:00:10	11.387	80.847			
00:00:10	12.883	80.847			
00:00:10	13.786	80.847			
00:00:10	14.825	80.847			
00:00:10	15.251	80.847			
00:00:10	15.511	80.847			
00:00:10	15.531	80.847			
00:00:10	15.041	80.847			
00:00:10	14.959	80.847			
00:00:10	14.407	80.847			
00:00:10	13.718	80.847			
00:00:10	13.324	80.847			
00:00:10	12.383	80.847			
00:00:10	11.794	80.847			
00:00:10	10.962	80.847			
00:00:10	10.079	80.847			
00:00:10	9.532	78.367			
00:00:10	8.462	78.367			
00:00:10	7.751	78.367			
00:00:10	7.029	78.367			
00:00:10	6.113	78.372			
00:00:10	5.618	78.372			
00:00:10	4.631	78.372			
00:00:10	3.828	78.372			
00:00:10	3.079	78.372			
00:00:10	2.027	78.372			
00:00:10	1.422	78.372			
00:00:10	0.677	78.372			
00:00:10	0.263	78.372			
00:00:10	0.062	78.372			
00:00:10	-0.450	78.372			
00:00:10	-0.344	78.372			
00:00:10	-0.378	78.372			
00:00:10	-0.459	78.372			
00:00:10	-0.087	78.372			
00:00:10	0.041	78.372			
00:00:10	0.471	78.372			
00:00:10	0.653	78.372			
00:00:10	0.543	78.372			
00:00:10	0.918	78.372			
00:00:10	0.883	78.372			
00:00:10	0.909	78.372			
00:00:10	0.863	78.372			
00:00:10	0.715	78.372			
00:00:10	0.922	78.372			
00:00:10	0.601	78.372			
00:00:10	0.341	78.372			
00:00:10	0.202	78.372			
00:00:10	-0.185	78.372			
00:00:10	-0.146	78.372			
00:00:10	-0.573	78.372			
00:00:10	-0.782	78.372			
00:00:10	-0.753	78.372			
00:00:10	-1.084	78.372			
00:00:10	-1.083	78.372			
00:00:10	-1.370	78.372			
00:00:10	-1.522	78.372			
00:00:10	-1.433	78.372			
00:00:10	-1.751	78.372			
00:00:10	-1.699	78.372			
00:00:10	-1.807	78.372			
00:00:10	-1.967	78.372			
00:00:10	-1.753	78.372			
00:00:10	-1.764	78.372			
00:00:10	-1.515	78.372			
00:00:10	-1.482	78.372			
00:00:10	-1.780	78.372			
00:00:10	-1.480	78.372			
00:00:10	-1.466	78.372			
00:00:10	-1.368	78.372			
00:00:10	-1.276	78.372			
00:00:10	-1.350	78.372			
00:00:11	-1.004	78.372			
00:00:11	-1.094	78.372			
00:00:11	-1.112	78.372			
00:00:11	-0.698	78.372			
00:00:11	-0.785	78.372			
00:00:11	-0.481	78.372			
00:00:11	-0.421	78.372			
00:00:11	-0.458	78.372			
00:00:11	-0.229	78.372			
00:00:11	-0.441	78.372			
00:00:11	-0.324	78.372			
00:00:11	-0.402	78.372			
00:00:11	-0.791	78.372			
00:00:11	-0.593	78.372			
00:00:11	-0.836	78.372			
00:00:11	-0.704	78.372			
00:00:11	-0.510	78.372			
00:00:11	-0.687	78.372			
00:00:11	-0.388	78.372			
00:00:11	-0.257	78.372			
00:00:11	0.202	78.372			
00:00:11	1.035	78.372			
00:00:11	1.598	78.372			
00:00:11	3.048	78.372			
00:00:11	4.563	78.372			
00:00:11	6.242	78.372			
00:00:11	8.318	78.372			
00:00:11	9.751	78.372			
00:00:11	11.464	78.372			
00:00:11	12.859	78.372			
00:00:11	13.945	78.372			
00:00:11	15.106	78.372			
00:00:11	15.403	78.372			
00:00:11	15.851	78.372			
00:00:11	16.109	78.372			
00:00:11	15.679	78.372			
00:00:11	15.605	78.372			
00:00:11	14.863	78.372			
00:00:11	14.209	78.372			
00:00:11	13.574	78.372			
00:00:11	12.534	78.372			
00:00:11	11.763	78.372			
00:00:11	10.619	78.372			
00:00:11	9.730	78.372			
00:00:11	9.289	76.800			
00:00:11	8.376	76.800			
00:00:11	7.847	76.800			
00:00:11	7.073	76.800			
00:00:11	6.152	76.805			
00:00:11	5.613	76.805			
00:00:11	4.536	76.805			
00:00:11	3.712	76.805			
00:00:11	2.887	76.805			
00:00:11	2.067	76.805			
00:00:11	1.750	76.805			
00:00:11	0.946	76.805			
00:00:11	0.500	76.805			
00:00:11	0.453	76.805			
00:00:11	0.197	76.805			
00:00:11	0.235	76.805			
00:00:11	-0.004	76.805			
00:00:11	-0.028	76.805			
00:00:11	0.319	76.805			
00:00:11	0.201	76.805			
00:00:11	0.519	76.805			
00:00:11	0.483	76.805			
00:00:11	0.492	76.805			
00:00:11	0.815	76.805			
00:00:11	0.667	76.805			
00:00:11	0.914	76.805			
00:00:11	0.999	76.805			
00:00:11	0.909	76.805			
00:00:11	1.044	76.805			
00:00:11	0.796	76.805			
00:00:11	0.651	76.805			
00:00:11	0.500	76.805			
00:00:11	0.141	76.805			
00:00:11	0.212	76.805			
00:00:11	-0.079	76.805			
00:00:11	-0.150	76.805			
00:00:11	-0.192	76.805			
00:00:11	-0.554	76.805			
00:00:11	-0.700	76.805			
00:00:11	-1.272	76.805			
00:00:11	-1.497	76.805			
00:00:11	-1.407	76.805			
00:00:11	-1.674	76.805			
00:00:11	-1.492	76.805			
00:00:11	-1.689	76.805			
00:00:11	-1.790	76.805			
00:00:11	-1.478	76.805			
00:00:11	-1.693	76.805			
00:00:11	-1.477	76.805			
00:00:11	-1.375	76.805			
00:00:11	-1.379	76.805			
00:00:11	-1.324	76.805			
00:00:11	-1.709	76.805			
00:00:11	-1.546	76.805			
00:00:11	-1.321	76.805			
00:00:11	-1.330	76.805			
00:00:11	-0.822	76.805			
00:00:11	-0.758	76.805			
00:00:11	-0.603	76.805			
00:00:11	-0.293	76.805			
00:00:11	-0.605	76.805			
00:00:11	-0.348	76.805			
00:00:11	-0.383	76.805			
00:00:11	-0.382	76.805			
00:00:11	-0.409	76.805			
00:00:11	-0.954	76.805			
00:00:11	-0.712	76.805			
00:00:11	-0.670	76.805			
00:00:11	-1.019	76.805			
00:00:11	-0.800	76.805			
00:00:11	-1.080	76.805			
00:00:11	-1.182	76.805			
00:00:11	-1.371	76.805			
00:00:11	-1.337	76.805			
00:00:11	-0.740	76.805			
00:00:11	-0.711	76.805			
00:00:11	-0.392	76.805			
00:00:11	-0.023	76.805			
00:00:11	0.270	76.805			
00:00:11	1.110	76.805			
00:00:11	1.600	76.805			
00:00:11	2.506	76.805			
00:00:11	4.013	76.805			
00:00:11	5.596	76.805			
00:00:12	7.510	76.805			
00:00:12	9.153	76.805			
00:00:12	10.828	76.805			
00:00:12	12.703	76.805			
00:00:12	13.687	76.805			
00:00:12	14.812	76.805			
00:00:12	15.435	76.805			
00:00:12	15.628	76.805			
00:00:12	15.905	76.805			
00:00:12	15.635	76.805			
00:00:12	15.319	76.805			
00:00:12	14.836	76.805			
00:00:12	14.133	76.805			
00:00:12	13.691	76.805			
00:00:12	12.689	76.805			
00:00:12	11.931	76.805			
00:00:12	11.271	75.294			
00:00:12	10.180	75.294			
00:00:12	9.390	75.294			
00:00:12	8.403	75.294			
00:00:12	7.671	75.299			
00:00:12	7.054	75.299			
00:00:12	6.170	75.299			
00:00:12	5.578	75.299			
00:00:12	4.545	75.299			
00:00:12	3.552	75.299			
00:00:12	2.882	75.299			
00:00:12	1.885	75.299			
00:00:12	1.464	75.299			
00:00:12	1.032	75.299			
00:00:12	0.355	75.299			
00:00:12	0.211	75.299			
00:00:12	-0.176	75.299			
00:00:12	-0.134	75.299			
00:00:12	0.186	75.299			
00:00:12	0.104	75.299			
00:00:12	0.421	75.299			
00:00:12	0.593	75.299			
00:00:12	1.042	75.299			
00:00:12	1.265	75.299			
00:00:12	1.058	75.299			
00:00:12	1.409	75.299			
00:00:12	1.451	75.299			
00:00:12	1.336	75.299			
00:00:12	1.341	75.299			
00:00:12	0.946	75.299			
00:00:12	1.047	75.299			
00:00:12	0.898	75.299			
00:00:12	0.651	75.299			
00:00:12	0.633	75.299			
00:00:12	0.266	75.299			
00:00:12	0.136	75.299			
00:00:12	0.002	75.299			
00:00:12	-0.385	75.299			
00:00:12	-0.338	75.299			
00:00:12	-0.727	75.299			
00:00:12	-0.719	75.299			
00:00:12	-0.632	75.299			
00:00:12	-0.965	75.299			
00:00:12	-0.867	75.299			
00:00:12	-0.959	75.299			
00:00:12	-1.098	75.299			
00:00:12	-1.135	75.299			
00:00:12	-1.395	75.299			
00:00:12	-1.175	75.299			
00:00:12	-1.354	75.299			
00:00:12	-1.554	75.299			
00:00:12	-1.347	75.299			
00:00:12	-1.601	75.299			
00:00:12	-1.456	75.299			
00:00:12	-1.483	75.299			
00:00:12	-1.576	75.299			
00:00:12	-1.149	75.299			
00:00:12	-1.178	75.299			
00:00:12	-0.950	75.299			
00:00:12	-0.790	75.299			
00:00:12	-0.941	75.299			
00:00:12	-0.791	75.299			
00:00:12	-0.943	75.299			
00:00:12	-0.835	75.299			
00:00:12	-0.802	75.299			
00:00:12	-0.990	75.299			
00:00:12	-0.525	75.299			
00:00:12	-0.588	75.299			
00:00:12	-0.676	75.299			
00:00:12	-0.479	75.299			
00:00:12	-0.749	75.299			
00:00:12	-0.613	75.299			
00:00:12	-0.734	75.299			
00:00:12	-0.818	75.299			
00:00:12	-0.573	75.299			
00:00:12	-0.774	75.299			
00:00:12	-0.619	75.299			
00:00:12	-0.645	75.299			
00:00:12	-0.808	75.299			
00:00:12	-0.607	75.299			
00:00:12	-0.774	75.299			
00:00:12	-0.336	75.299			
00:00:12	0.365	75.299			
00:00:12	1.027	75.299			
00:00:12	2.552	75.299			
00:00:12	4.184	75.299			
00:00:12	6.176	75.299			
00:00:12	8.220	75.299			
00:00:12	9.760	75.299			
00:00:12	11.729	75.299			
00:00:12	13.095	75.299			
00:00:12	14.291	75.299			
00:00:12	15.339	75.299			
00:00:12	15.766	75.299			
00:00:12	16.297	75.299			
00:00:12	16.186	75.299			
00:00:12	15.844	75.299			
00:00:12	15.680	75.299			
00:00:12	15.031	75.299			
00:00:12	14.506	75.299			
00:00:12	13.821	75.299			
00:00:12	12.880	75.299			
00:00:12	12.290	75.299			
00:00:12	11.234	75.299			
00:00:12	10.392	74.563			
00:00:12	9.535	74.563			
00:00:12	8.425	74.563			
00:00:12	7.912	74.563			
00:00:12	7.023	74.568			
00:00:12	6.180	74.568			
00:00:12	5.476	74.568			
00:00:12	4.416	74.568			
00:00:13	3.891	74.568			
00:00:13	3.111	74.568			
00:00:13	2.405	74.568			
00:00:13	1.887	74.568			
00:00:13	0.941	74.568			
00:00:13	0.696	74.568			
00:00:13	0.570	74.568			
00:00:13	0.236	74.568			
00:00:13	0.329	74.568			
00:00:13	0.165	74.568			
00:00:13	0.324	74.568			
00:00:13	0.341	74.568			
00:00:13	0.214	74.568			
00:00:13	0.654	74.568			
00:00:13	0.754	74.568			
00:00:13	1.089	74.568			
00:00:13	1.282	74.568			
00:00:13	1.135	74.568			
00:00:13	1.400	74.568			
00:00:13	1.310	74.568			
00:00:13	1.181	74.568			
00:00:13	1.177	74.568			
00:00:13	0.691	74.568			
00:00:13	0.676	74.568			
00:00:13	0.407	74.568			
00:00:13	0.105	74.568			
00:00:13	0.240	74.568			
00:00:13	-0.187	74.568			
00:00:13	-0.269	74.568			
00:00:13	-0.428	74.568			
00:00:13	-0.758	74.568			
00:00:13	-0.763	74.568			
00:00:13	-1.185	74.568			
00:00:13	-1.240	74.568			
00:00:13	-1.175	74.568			
00:00:13	-1.532	74.568			
00:00:13	-1.263	74.568			
00:00:13	-1.386	74.568			
00:00:13	-1.408	74.568			
00:00:13	-1.160	74.568			
00:00:13	-1.275	74.568			
00:00:13	-1.083	74.568			
00:00:13	-1.231	74.568			
00:00:13	-1.293	74.568			
00:00:13	-1.076	74.568			
00:00:13	-1.421	74.568			
00:00:13	-1.281	74.568			
00:00:13	-1.226	74.568			
00:00:13	-1.331	74.568			
00:00:13	-1.187	74.568			
00:00:13	-1.343	74.568			
00:00:13	-1.081	74.568			
00:00:13	-0.973	74.568			
00:00:13	-1.019	74.568			
00:00:13	-0.494	74.568			
00:00:13	-0.530	74.568			
00:00:13	-0.567	74.568			
00:00:13	-0.299	74.568			
00:00:13	-0.436	74.568			
00:00:13	-0.248	74.568			
00:00:13	-0.356	74.568			
00:00:13	-0.419	74.568			
00:00:13	-0.382	74.568			
00:00:13	-0.630	74.568			
00:00:13	-0.444	74.568			
00:00:13	-0.534	74.568			
00:00:13	-0.511	74.568			
00:00:13	-0.271	74.568			
00:00:13	-0.535	74.568			
00:00:13	-0.449	74.568			
00:00:13	-0.494	74.568			
00:00:13	-0.657	74.568			
00:00:13	-0.514	74.568			
00:00:13	-0.706	74.568			
00:00:13	-0.484	74.568			
00:00:13	0.126	74.568			
00:00:13	0.836	74.568			
00:00:13	2.154	74.568			
00:00:13	3.319	74.568			
00:00:13	5.111	74.568			
00:00:13	7.066	74.568			
00:00:13	8.577	74.568			
00:00:13	10.416	74.568			
00:00:13	11.961	74.568			
00:00:13	13.549	74.568			
00:00:13	15.106	74.568			
00:00:13	15.930	74.568			
00:00:13	16.823	74.568			
00:00:13	17.066	74.568			
00:00:13	16.943	74.568			
00:00:13	16.935	74.568			
00:00:13	16.278	74.568			
00:00:13	15.750	74.568			
00:00:13	15.132	74.568			
00:00:13	14.375	74.568			
00:00:13	13.836	74.568			
00:00:13	12.813	74.568			
00:00:13	12.001	74.568			
00:00:13	11.268	74.568			
00:00:13	10.225	74.568			
00:00:13	9.607	72.453			
00:00:13	8.631	72.453			
00:00:13	7.760	72.453			
00:00:13	7.126	72.453			
00:00:13	6.131	72.458			
00:00:13	5.424	72.458			
00:00:13	4.500	72.458			
00:00:13	3.831	72.458			
00:00:13	3.420	72.458			
00:00:13	2.363	72.458			
00:00:13	1.849	72.458			
00:00:13	1.360	72.458			
00:00:13	0.761	72.458			
00:00:13	0.565	72.458			
00:00:13	0.107	72.458			
00:00:13	0.093	72.458			
00:00:13	0.042	72.458			
00:00:13	-0.050	72.458			
00:00:13	0.293	72.458			
00:00:13	0.222	72.458			
00:00:13	0.573	72.458			
00:00:13	0.931	72.458			
00:00:13	0.902	72.458			
00:00:13	1.237	72.458			
00:00:13	1.140	72.458			
00:00:13	1.178	72.458			
00:00:13	1.396	72.458			
00:00:13	1.079	72.458			
00:00:14	1.177	72.458			
00:00:14	1.017	72.458			
00:00:14	0.702	72.458			
00:00:14	0.738	72.458			
00:00:14	0.287	72.458			
00:00:14	0.033	72.458			
00:00:14	-0.253	72.458			
00:00:14	-0.439	72.458			
00:00:14	-0.228	72.458			
00:00:14	-0.549	72.458			
00:00:14	-0.679	72.458			
00:00:14	-0.802	72.458			
00:00:14	-1.026	72.458			
00:00:14	-0.824	72.458			
00:00:14	-1.148	72.458			
00:00:14	-1.434	72.458			
00:00:14	-1.484	72.458			
00:00:14	-1.627	72.458			
00:00:14	-1.331	72.458			
00:00:14	-1.403	72.458			
00:00:14	-1.518	72.458			
00:00:14	-1.281	72.458			
00:00:14	-1.458	72.458			
00:00:14	-1.205	72.458			
00:00:14	-1.274	72.458			
00:00:14	-1.335	72.458			
00:00:14	-1.077	72.458			
00:00:14	-1.387	72.458			
00:00:14	-1.249	72.458			
00:00:14	-1.146	72.458			
00:00:14	-1.268	72.458			
00:00:14	-0.864	72.458			
00:00:14	-0.871	72.458			
00:00:14	-0.553	72.458			
00:00:14	-0.217	72.458			
00:00:14	-0.258	72.458			
00:00:14	0.050	72.458			
00:00:14	-0.034	72.458			
00:00:14	-0.096	72.458			
00:00:14	0.013	72.458			
00:00:14	-0.059	72.458			
00:00:14	0.208	72.458			
00:00:14	-0.013	72.458			
00:00:14	-0.203	72.458			
00:00:14	-0.174	72.458			
00:00:14	-0.400	72.458			
00:00:14	-0.275	72.458			
00:00:14	-0.466	72.458			
00:00:14	-0.703	72.458			
00:00:14	-0.601	72.458			
00:00:14	-0.874	72.458			
00:00:14	-0.802	72.458			
00:00:14	-0.745	72.458			
00:00:14	-0.870	72.458			
00:00:14	-0.471	72.458			
00:00:14	-0.452	72.458			
00:00:14	-0.156	72.458			
00:00:14	0.598	72.458			
00:00:14	1.488	72.458			
00:00:14	3.258	72.458			
00:00:14	4.949	72.458			
00:00:14	6.756	72.458			
00:00:14	8.803	72.458			
00:00:14	10.519	72.458			
00:00:14	12.461	72.458			
00:00:14	13.953	72.458			
00:00:14	15.081	72.458			
00:00:14	16.209	72.458			
00:00:14	16.673	72.458			
00:00:14	17.116	72.458			
00:00:14	17.036	72.458			
00:00:14	16.579	72.458			
00:00:14	16.358	72.458			
00:00:14	15.634	72.458			
00:00:14	15.012	72.458			
00:00:14	14.256	72.458			
00:00:14	13.241	72.458			
00:00:14	12.664	72.458			
00:00:14	11.563	72.458			
00:00:14	10.539	72.458			
00:00:14	9.791	70.459			
00:00:14	8.822	70.459			
00:00:14	8.267	70.459			
00:00:14	7.320	70.459			
00:00:14	6.459	70.464			
00:00:14	5.785	70.464			
00:00:14	4.698	70.464			
00:00:14	3.980	70.464			
00:00:14	3.181	70.464			
00:00:14	2.372	70.464			
00:00:14	1.764	70.464			
00:00:14	0.884	70.464			
00:00:14	0.536	70.464			
00:00:14	0.131	70.464			
00:00:14	-0.184	70.464			
00:00:14	0.042	70.464			
00:00:14	-0.169	70.464			
00:00:14	-0.042	70.464			
00:00:14	0.135	70.464			
00:00:14	0.105	70.464			
00:00:14	0.368	70.464			
00:00:14	0.399	70.464			
00:00:14	0.656	70.464			
00:00:14	1.105	70.464			
00:00:14	1.141	70.464			
00:00:14	1.457	70.464			
00:00:14	1.417	70.464			
00:00:14	1.256	70.464			
00:00:14	1.373	70.464			
00:00:14	0.972	70.464			
00:00:14	0.989	70.464			
00:00:14	0.862	70.464			
00:00:14	0.411	70.464			
00:00:14	0.387	70.464			
00:00:14	0.054	70.464			
00:00:14	-0.056	70.464			
00:00:14	-0.064	70.464			
00:00:14	-0.470	70.464			
00:00:14	-0.426	70.464			
00:00:14	-0.701	70.464			
00:00:14	-0.724	70.464			
00:00:14	-0.605	70.464			
00:00:14	-0.923	70.464			
00:00:14	-0.820	70.464			
00:00:14	-1.001	70.464			
00:00:14	-1.139	70.464			
00:00:14	-1.022	70.464			
00:00:14	-1.307	70.464			
00:00:15	-1.194	70.464			
00:00:15	-1.282	70.464			
00:00:15	-1.295	70.464			
00:00:15	-1.136	70.464			
00:00:15	-1.540	70.464			
00:00:15	-1.449	70.464			
00:00:15	-1.351	70.464			
00:00:15	-1.405	70.464			
00:00:15	-0.961	70.464			
00:00:15	-0.993	70.464			
00:00:15	-0.983	70.464			
00:00:15	-0.953	70.464			
00:00:15	-0.972	70.464			
00:00:15	-0.492	70.464			
00:00:15	-0.603	70.464			
00:00:15	-0.327	70.464			
00:00:15	-0.014	70.464			
00:00:15	-0.133	70.464			
00:00:15	0.181	70.464			
00:00:15	0.113	70.464			
00:00:15	0.043	70.464			
00:00:15	0.166	70.464			
00:00:15	-0.163	70.464			
00:00:15	0.074	70.464			
00:00:15	0.018	70.464			
00:00:15	-0.100	70.464			
00:00:15	0.167	70.464			
00:00:15	-0.230	70.464			
00:00:15	-0.270	70.464			
00:00:15	-0.131	70.464			
00:00:15	-0.346	70.464			
00:00:15	-0.221	70.464			
00:00:15	-0.582	70.464			
00:00:15	-0.672	70.464			
00:00:15	-0.737	70.464			
00:00:15	-1.005	70.464			
00:00:15	-0.696	70.464			
00:00:15	-0.539	70.464			
00:00:15	0.139	70.464			
00:00:15	1.405	70.464			
00:00:15	2.528	70.464			
00:00:15	4.357	70.464			
00:00:15	6.101	70.464			
00:00:15	8.010	70.464			
00:00:15	10.187	70.464			
00:00:15	11.687	70.464			
00:00:15	13.297	70.464			
00:00:15	14.414	70.464			
00:00:15	15.067	70.464			
00:00:15	15.879	70.464			
00:00:15	16.001	70.464			
00:00:15	16.075	70.464			
00:00:15	15.878	70.464			
00:00:15	15.370	70.464			
00:00:15	15.058	70.464			
00:00:15	14.200	70.464			
00:00:15	13.386	70.464			
00:00:15	12.562	70.464			
00:00:15	11.513	70.464			
00:00:15	10.892	70.464			
00:00:15	10.038	70.459			
00:00:15	9.161	70.459			
00:00:15	8.386	70.459			
00:00:15	7.398	70.459			
00:00:15	6.827	70.464			
00:00:15	6.089	70.464			
00:00:15	5.315	70.464			
00:00:15	4.646	70.464			
00:00:15	3.246	70.464			
00:00:15	2.415	70.464			
00:00:15	1.544	70.464			
00:00:15	0.604	70.464			
00:00:15	0.302	70.464			
00:00:15	-0.253	70.464			
00:00:15	-0.385	70.464			
00:00:15	-0.197	70.464			
00:00:15	-0.282	70.464			
00:00:15	-0.012	70.464			
00:00:15	-0.094	70.464			
00:00:15	0.085	70.464			
00:00:15	0.446	70.464			
00:00:15	0.421	70.464			
00:00:15	0.776	70.464			
00:00:15	0.732	70.464			
00:00:15	0.713	70.464			
00:00:15	1.127	70.464			
00:00:15	1.204	70.464			
00:00:15	1.539	70.464			
00:00:15	1.521	70.464			
00:00:15	1.231	70.464			
00:00:15	1.326	70.464			
00:00:15	1.022	70.464			
00:00:15	0.959	70.464			
00:00:15	0.789	70.464			
00:00:15	0.426	70.464			
00:00:15	0.542	70.464			
00:00:15	0.250	70.464			
00:00:15	0.168	70.464			
00:00:15	0.074	70.464			
00:00:15	-0.473	70.464			
00:00:15	-0.566	70.464			
00:00:15	-0.980	70.464			
00:00:15	-1.142	70.464			
00:00:15	-1.094	70.464			
00:00:15	-1.498	70.464			
00:00:15	-1.355	70.464			
00:00:15	-1.398	70.464			
00:00:15	-1.530	70.464			
00:00:15	-1.357	70.464			
00:00:15	-1.539	70.464			
00:00:15	-1.373	70.464			
00:00:15	-1.304	70.464			
00:00:15	-1.421	70.464			
00:00:15	-1.176	70.464			
00:00:15	-1.459	70.464			
00:00:15	-1.374	70.464			
00:00:15	-1.238	70.464			
00:00:15	-1.345	70.464			
00:00:15	-1.034	70.464			
00:00:15	-1.046	70.464			
00:00:15	-1.030	70.464			
00:00:15	-0.832	70.464			
00:00:15	-0.841	70.464			
00:00:15	-0.379	70.464			
00:00:15	-0.396	70.464			
00:00:15	-0.204	70.464			
00:00:15	0.196	70.464			
00:00:15	0.116	70.464			
00:00:16	0.273	79.180			
00:00:16	0.080	79.180			
00:00:16	-0.225	79.180			
00:00:16	-0.015	79.180			
00:00:16	-0.139	79.180			
00:00:16	0.053	79.180			
00:00:16	-0.037	79.180			
00:00:16	-0.284	79.180			
00:00:16	-0.111	79.180			
00:00:16	-0.346	79.180			
00:00:16	-0.415	79.180			
00:00:16	-0.398	79.180			
00:00:16	-0.821	79.180			
00:00:16	-0.715	79.180			
00:00:16	-0.926	79.180			
00:00:16	-0.644	79.180			
00:00:16	-0.071	79.180			
00:00:16	0.513	79.180			
00:00:16	1.802	79.180			
00:00:16	3.137	79.180			
00:00:16	4.704	79.180			
00:00:16	6.739	79.180			
00:00:16	8.435	79.180			
00:00:16	10.587	79.180			
00:00:16	12.275	79.180			
00:00:16	13.563	79.180			
00:00:16	14.964	79.180			
00:00:16	15.667	79.180			
00:00:16	16.482	79.180			
00:00:16	16.879	79.180			
00:00:16	16.793	79.180			
00:00:16	16.788	79.180			
00:00:16	16.189	79.180			
00:00:16	15.604	79.180			
00:00:16	14.898	79.180			
00:00:16	13.771	79.180			
00:00:16	13.035	79.180			
00:00:16	12.224	79.180			
00:00:16	11.468	79.180			
00:00:16	10.828	79.180			
00:00:16	9.662	71.111			
00:00:16	8.906	71.111			
00:00:16	7.971	71.111			
00:00:16	7.073	71.111			
00:00:16	6.564	71.116			
00:00:16	5.601	71.116			
00:00:16	4.871	71.116			
00:00:16	4.106	71.116			
00:00:16	3.268	71.116			
00:00:16	2.616	71.116			
00:00:16	1.636	71.116			
00:00:16	0.987	71.116			
00:00:16	0.543	71.116			
00:00:16	-0.021	71.116			
00:00:16	0.068	71.116			
00:00:16	-0.161	71.116			
00:00:16	-0.118	71.116			
00:00:16	0.189	71.116			
00:00:16	0.102	71.116			
00:00:16	0.485	71.116			
00:00:16	0.571	71.116			
00:00:16	0.859	71.116			
00:00:16	1.283	71.116			
00:00:16	1.227	71.116			
00:00:16	1.637	71.116			
00:00:16	1.765	71.116			
00:00:16	1.598	71.116			
00:00:16	1.725	71.116			
00:00:16	1.327	71.116			
00:00:16	1.241	71.116			
00:00:16	1.258	71.116			
00:00:16	1.028	71.116			
00:00:16	1.161	71.116			
00:00:16	0.742	71.116			
00:00:16	0.480	71.116			
00:00:16	0.383	71.116			
00:00:16	0.157	71.116			
00:00:16	0.222	71.116			
00:00:16	-0.273	71.116			
00:00:16	-0.569	71.116			
00:00:16	-0.632	71.116			
00:00:16	-1.009	71.116			
00:00:16	-0.959	71.116			
00:00:16	-1.144	71.116			
00:00:16	-1.267	71.116			
00:00:16	-1.115	71.116			
00:00:16	-1.257	71.116			
00:00:16	-1.057	71.116			
00:00:16	-1.051	71.116			
00:00:16	-1.175	71.116			
00:00:16	-1.030	71.116			
00:00:16	-1.186	71.116			
00:00:16	-0.844	71.116			
00:00:16	-0.711	71.116			
00:00:16	-0.841	71.116			
00:00:16	-0.542	71.116			
00:00:16	-0.717	71.116			
00:00:16	-0.598	71.116			
00:00:16	-0.506	71.116			
00:00:16	-0.458	71.116			
00:00:16	0.027	71.116			
00:00:16	-0.065	71.116			
00:00:16	-0.035	71.116			
00:00:16	0.275	71.116			
00:00:16	0.047	71.116			
00:00:16	0.210	71.116			
00:00:16	0.071	71.116			
00:00:16	-0.024	71.116			
00:00:16	0.363	71.116			
00:00:16	0.160	71.116			
00:00:16	0.339	71.116			
00:00:16	0.373	71.116			
00:00:16	0.086	71.116			
00:00:16	0.378	71.116			
00:00:16	0.187	71.116			
00:00:16	0.074	71.116			
00:00:16	-0.001	71.116			
00:00:16	-0.228	71.116			
00:00:16	-0.151	71.116			
00:00:16	-0.443	71.116			
00:00:16	-0.517	71.116			
00:00:16	-0.499	71.116			
00:00:16	-0.734	71.116			
00:00:16	-0.398	71.116			
00:00:16	-0.210	71.116			
00:00:16	0.072	71.116			
00:00:16	0.650	71.116			
00:00:16	1.193	71.116			
00:00:17	2.501	71.116			
00:00:17	3.963	71.116			
00:00:17	5.678	71.116			
00:00:17	7.816	71.116			
00:00:17	9.587	71.116			
00:00:17	11.561	71.116			
00:00:17	13.142	71.116			
00:00:17	14.309	71.116			
00:00:17	15.742	71.116			
00:00:17	16.467	71.116			
00:00:17	17.020	71.116			
00:00:17	17.217	71.116			
00:00:17	16.889	71.116			
00:00:17	16.793	71.116			
00:00:17	16.226	71.116			
00:00:17	15.671	71.116			
00:00:17	15.143	71.116			
00:00:17	14.116	71.116			
00:00:17	13.428	71.116			
00:00:17	12.392	71.116			
00:00:17	11.302	70.459			
00:00:17	10.672	70.459			
00:00:17	9.609	70.459			
00:00:17	9.046	70.459			
00:00:17	8.275	70.464			
00:00:17	7.413	70.464			
00:00:17	6.881	70.464			
00:00:17	5.952	70.464			
00:00:17	5.188	70.464			
00:00:17	4.411	70.464			
00:00:17	3.409	70.464			
00:00:17	2.949	70.464			
00:00:17	2.069	70.464			
00:00:17	1.491	70.464			
00:00:17	1.226	70.464			
00:00:17	0.621	70.464			
00:00:17	0.439	70.464			
00:00:17	0.142	70.464			
00:00:17	0.200	70.464			
00:00:17	0.395	70.464			
00:00:17	0.284	70.464			
00:00:17	0.655	70.464			
00:00:17	0.760	70.464			
00:00:17	0.952	70.464			
00:00:17	1.419	70.464			
00:00:17	1.507	70.464			
00:00:17	1.757	70.464			
00:00:17	1.835	70.464			
00:00:17	1.776	70.464			
00:00:17	1.920	70.464			
00:00:17	1.590	70.464			
00:00:17	1.616	70.464			
00:00:17	1.539	70.464			
00:00:17	1.094	70.464			
00:00:17	1.230	70.464			
00:00:17	0.888	70.464			
00:00:17	0.621	70.464			
00:00:17	0.495	70.464			
00:00:17	-0.076	70.464			
00:00:17	-0.062	70.464			
00:00:17	-0.376	70.464			
00:00:17	-0.533	70.464			
00:00:17	-0.404	70.464			
00:00:17	-0.737	70.464			
00:00:17	-0.693	70.464			
00:00:17	-0.831	70.464			
00:00:17	-0.956	70.464			
00:00:17	-0.707	70.464			
00:00:17	-1.039	70.464			
00:00:17	-1.087	70.464			
00:00:17	-1.008	70.464			
00:00:17	-1.146	70.464			
00:00:17	-0.936	70.464			
00:00:17	-0.928	70.464			
00:00:17	-0.733	70.464			
00:00:17	-0.636	70.464			
00:00:17	-0.807	70.464			
00:00:17	-0.544	70.464			
00:00:17	-0.692	70.464			
00:00:17	-0.663	70.464			
00:00:17	-0.483	70.464			
00:00:17	-0.645	70.464			
00:00:17	-0.337	70.464			
00:00:17	-0.296	70.464			
00:00:17	-0.229	70.464			
00:00:17	0.047	70.464			
00:00:17	-0.189	70.464			
00:00:17	-0.035	70.464			
00:00:17	0.062	70.464			
00:00:17	-0.037	70.464			
00:00:17	0.132	70.464			
00:00:17	-0.055	70.464			
00:00:17	0.021	70.464			
00:00:17	0.043	70.464			
00:00:17	-0.223	70.464			
00:00:17	-0.183	70.464			
00:00:17	-0.417	70.464			
00:00:17	-0.389	70.464			
00:00:17	-0.198	70.464			
00:00:17	-0.557	70.464			
00:00:17	-0.529	70.464			
00:00:17	-0.880	70.464			
00:00:17	-0.901	70.464			
00:00:17	-0.703	70.464			
00:00:17	-0.886	70.464			
00:00:17	-0.816	70.464			
00:00:17	-0.840	70.464			
00:00:17	-0.709	70.464			
00:00:17	-0.143	70.464			
00:00:17	0.327	70.464			
00:00:17	1.418	70.464			
00:00:17	2.538	70.464			
00:00:17	3.945	70.464			
00:00:17	6.219	70.464			
00:00:17	8.074	70.464			
00:00:17	9.992	70.464			
00:00:17	11.719	70.464			
00:00:17	12.944	70.464			
00:00:17	14.367	70.464			
00:00:17	15.165	70.464			
00:00:17	15.833	70.464			
00:00:17	16.198	70.464			
00:00:17	15.970	70.464			
00:00:17	16.004	70.464			
00:00:17	15.619	70.464			
00:00:17	15.157	70.464			
00:00:17	14.687	70.464			
00:00:17	13.685	70.464			
00:00:18	12.920	70.464			
00:00:18	12.083	70.464			
00:00:18	11.282	70.464			
00:00:18	10.597	70.464			
00:00:18	9.506	69.189			
00:00:18	8.842	69.189			
00:00:18	7.946	69.189			
00:00:18	6.963	69.189			
00:00:18	6.595	69.194			
00:00:18	5.619	69.194			
00:00:18	4.799	69.194			
00:00:18	4.130	69.194			
00:00:18	3.140	69.194			
00:00:18	2.641	69.194			
00:00:18	1.764	69.194			
00:00:18	1.088	69.194			
00:00:18	0.681	69.194			
00:00:18	0.061	69.194			
00:00:18	0.043	69.194			
00:00:18	-0.118	69.194			
00:00:18	-0.192	69.194			
00:00:18	0.232	69.194			
00:00:18	0.109	69.194			
00:00:18	0.301	69.194			
00:00:18	0.478	69.194			
00:00:18	0.609	69.194			
00:00:18	1.087	69.194			
00:00:18	1.076	69.194			
00:00:18	1.302	69.194			
00:00:18	1.426	69.194			
00:00:18	1.333	69.194			
00:00:18	1.605	69.194			
00:00:18	1.364	69.194			
00:00:18	1.241	69.194			
00:00:18	1.289	69.194			
00:00:18	0.855	69.194			
00:00:18	0.800	69.194			
00:00:18	0.554	69.194			
00:00:18	0.469	69.194			
00:00:18	0.616	69.194			
00:00:18	0.078	69.194			
00:00:18	0.093	69.194			
00:00:18	-0.014	69.194			
00:00:18	-0.250	69.194			
00:00:18	-0.081	69.194			
00:00:18	-0.314	69.194			
00:00:18	-0.321	69.194			
00:00:18	-0.493	69.194			
00:00:18	-0.767	69.194			
00:00:18	-0.698	69.194			
00:00:18	-1.044	69.194			
00:00:18	-1.034	69.194			
00:00:18	-1.007	69.194			
00:00:18	-1.264	69.194			
00:00:18	-0.992	69.194			
00:00:18	-1.048	69.194			
00:00:18	-1.010	69.194			
00:00:18	-0.970	69.194			
00:00:18	-1.195	69.194			
00:00:18	-0.913	69.194			
00:00:18	-0.964	69.194			
00:00:18	-0.833	69.194			
00:00:18	-0.473	69.194			
00:00:18	-0.653	69.194			
00:00:18	-0.370	69.194			
00:00:18	-0.326	69.194			
00:00:18	-0.225	69.194			
00:00:18	0.246	69.194			
00:00:18	0.032	69.194			
00:00:18	0.169	69.194			
00:00:18	0.372	69.194			
00:00:18	0.196	69.194			
00:00:18	0.404	69.194			
00:00:18	0.107	69.194			
00:00:18	0.138	69.194			
00:00:18	0.244	69.194			
00:00:18	0.093	69.194			
00:00:18	0.337	69.194			
00:00:18	0.129	69.194			
00:00:18	-0.023	69.194			
00:00:18	-0.022	69.194			
00:00:18	-0.366	69.194			
00:00:18	-0.192	69.194			
00:00:18	-0.255	69.194			
00:00:18	-0.348	69.194			
00:00:18	-0.300	69.194			
00:00:18	-0.391	69.194			
00:00:18	0.135	69.194			
00:00:18	0.692	69.194			
00:00:18	1.606	69.194			
00:00:18	3.027	69.194			
00:00:18	4.095	69.194			
00:00:18	5.734	69.194			
00:00:18	7.421	69.194			
00:00:18	8.955	69.194			
00:00:18	10.755	69.194			
00:00:18	11.892	69.194			
00:00:18	12.967	69.194			
00:00:18	13.934	69.194			
00:00:18	14.368	69.194			
00:00:18	14.821	69.194			
00:00:18	14.659	69.194			
00:00:18	14.341	69.194			
00:00:18	13.953	69.194			
00:00:18	13.118	69.194			
00:00:18	12.709	69.194			
00:00:18	11.858	69.194			
00:00:18	11.042	69.194			
00:00:18	10.470	72.453			
00:00:18	9.398	72.453			
00:00:18	8.807	72.453			
00:00:18	8.210	72.453			
00:00:18	7.281	72.458			
00:00:18	6.746	72.458			
00:00:18	5.904	72.458			
00:00:18	5.258	72.458			
00:00:18	4.460	72.458			
00:00:18	3.440	72.458			
00:00:18	2.882	72.458			
00:00:18	2.067	72.458			
00:00:18	1.498	72.458			
00:00:18	1.014	72.458			
00:00:18	0.395	72.458			
00:00:18	0.376	72.458			
00:00:18	0.051	72.458			
00:00:18	0.082	72.458			
00:00:18	0.430	72.458			
00:00:18	0.411	72.458			
00:00:19	0.755	72.458			
00:00:19	0.841	72.458			
00:00:19	0.947	72.458			
00:00:19	1.468	72.458			
00:00:19	1.475	72.458			
00:00:19	1.740	72.458			
00:00:19	1.836	72.458			
00:00:19	1.655	72.458			
00:00:19	1.866	72.458			
00:00:19	1.692	72.458			
00:00:19	1.802	72.458			
00:00:19	1.802	72.458			
00:00:19	1.376	72.458			
00:00:19	1.433	72.458			
00:00:19	1.150	72.458			
00:00:19	1.004	72.458			
00:00:19	1.046	72.458			
00:00:19	0.541	72.458			
00:00:19	0.526	72.458			
00:00:19	0.370	72.458			
00:00:19	0.238	72.458			
00:00:19	0.370	72.458			
00:00:19	0.006	72.458			
00:00:19	-0.021	72.458			
00:00:19	-0.180	72.458			
00:00:19	-0.330	72.458			
00:00:19	-0.096	72.458			
00:00:19	-0.351	72.458			
00:00:19	-0.324	72.458			
00:00:19	-0.463	72.458			
00:00:19	-0.783	72.458			
00:00:19	-0.631	72.458			
00:00:19	-0.738	72.458			
00:00:19	-0.550	72.458			
00:00:19	-0.367	72.458			
00:00:19	-0.531	72.458			
00:00:19	-0.122	72.458			
00:00:19	-0.063	72.458			
00:00:19	0.089	72.458			
00:00:19	0.425	72.458			
00:00:19	0.353	72.458			
00:00:19	0.624	72.458			
00:00:19	0.661	72.458			
00:00:19	0.536	72.458			
00:00:19	0.736	72.458			
00:00:19	0.603	72.458			
00:00:19	0.662	72.458			
00:00:19	0.650	72.458			
00:00:19	0.581	72.458			
00:00:19	0.879	72.458			
00:00:19	0.755	72.458			
00:00:19	0.816	72.458			
00:00:19	0.708	72.458			
00:00:19	0.471	72.458			
00:00:19	0.674	72.458			
00:00:19	0.456	72.458			
00:00:19	0.468	72.458			
00:00:19	0.678	72.458			
00:00:19	0.635	72.458			
00:00:19	1.163	72.458			
00:00:19	1.476	72.458			
00:00:19	2.059	72.458			
00:00:19	3.181	72.458			
00:00:19	4.107	72.458			
00:00:19	5.894	72.458			
00:00:19	7.473	72.458			
00:00:19	8.892	72.458			
00:00:19	10.423	72.458			
00:00:19	11.371	72.458			
00:00:19	12.498	72.458			
00:00:19	13.267	72.458			
00:00:19	13.695	72.458			
00:00:19	14.213	72.458			
00:00:19	13.835	72.458			
00:00:19	13.634	72.458			
00:00:19	13.396	72.458			
00:00:19	12.737	72.458			
00:00:19	12.436	72.458			
00:00:19	11.619	72.458			
00:00:19	10.756	72.458			
00:00:19	10.167	76.800			
00:00:19	9.304	76.800			
00:00:19	8.867	76.800			
00:00:19	8.125	76.800			
00:00:19	7.397	76.805			
00:00:19	6.782	76.805			
00:00:19	5.877	76.805			
00:00:19	5.472	76.805			
00:00:19	4.773	76.805			
00:00:19	3.997	76.805			
00:00:19	3.242	76.805			
00:00:19	2.114	76.805			
00:00:19	1.511	76.805			
00:00:19	1.097	76.805			
00:00:19	0.572	76.805			
00:00:19	0.507	76.805			
00:00:19	0.089	76.805			
00:00:19	-0.055	76.805			
00:00:19	0.010	76.805			
00:00:19	0.091	76.805			
00:00:19	0.502	76.805			
00:00:19	0.494	76.805			
00:00:19	0.443	76.805			
00:00:19	0.637	76.805			
00:00:19	0.543	76.805			
00:00:19	1.081	76.805			
00:00:19	1.375	76.805			
00:00:19	1.520	76.805			
00:00:19	1.647	76.805			
00:00:19	1.331	76.805			
00:00:19	1.521	76.805			
00:00:19	1.457	76.805			
00:00:19	1.168	76.805			
00:00:19	1.200	76.805			
00:00:19	0.814	76.805			
00:00:19	0.726	76.805			
00:00:19	0.576	76.805			
00:00:19	0.152	76.805			
00:00:19	0.290	76.805			
00:00:19	-0.143	76.805			
00:00:19	-0.295	76.805			
00:00:19	-0.336	76.805			
00:00:19	-0.657	76.805			
00:00:19	-0.506	76.805			
00:00:19	-0.656	76.805			
00:00:19	-0.950	76.805			
00:00:19	-1.041	76.805			
00:00:19	-1.284	76.805			
00:00:20	-1.172	76.805			
00:00:20	-1.319	76.805			
00:00:20	-1.375	76.805			
00:00:20	-1.068	76.805			
00:00:20	-1.189	76.805			
00:00:20	-0.953	76.805			
00:00:20	-0.906	76.805			
00:00:20	-1.094	76.805			
00:00:20	-0.865	76.805			
00:00:20	-1.029	76.805			
00:00:20	-1.000	76.805			
00:00:20	-0.680	76.805			
00:00:20	-0.645	76.805			
00:00:20	-0.288	76.805			
00:00:20	-0.314	76.805			
00:00:20	-0.129	76.805			
00:00:20	0.026	76.805			
00:00:20	-0.276	76.805			
00:00:20	-0.038	76.805			
00:00:20	-0.116	76.805			
00:00:20	-0.171	76.805			
00:00:20	0.136	76.805			
00:00:20	-0.048	76.805			
00:00:20	0.116	76.805			
00:00:20	-0.003	76.805			
00:00:20	-0.204	76.805			
00:00:20	-0.070	76.805			
00:00:20	-0.323	76.805			
00:00:20	-0.207	76.805			
00:00:20	-0.159	76.805			
00:00:20	-0.294	76.805			
00:00:20	0.332	76.805			
00:00:20	0.865	76.805			
00:00:20	1.754	76.805			
00:00:20	2.965	76.805			
00:00:20	4.080	76.805			
00:00:20	5.891	76.805			
00:00:20	7.537	76.805			
00:00:20	9.266	76.805			
00:00:20	10.876	76.805			
00:00:20	11.773	76.805			
00:00:20	12.745	76.805			
00:00:20	13.243	76.805			
00:00:20	13.525	76.805			
00:00:20	14.075	76.805			
00:00:20	13.930	76.805			
00:00:20	13.883	76.805			
00:00:20	13.432	76.805			
00:00:20	12.815	76.805			
00:00:20	12.427	76.805			
00:00:20	11.476	76.805			
00:00:20	10.922	76.805			
00:00:20	10.243	76.800			
00:00:20	9.231	76.800			
00:00:20	8.665	76.800			
00:00:20	7.734	76.800			
00:00:20	7.014	76.805			
00:00:20	6.403	76.805			
00:00:20	5.323	76.805			
00:00:20	4.811	76.805			
00:00:20	4.052	76.805			
00:00:20	3.243	76.805			
00:00:20	2.780	76.805			
00:00:20	2.051	76.805			
00:00:20	1.539	76.805			
00:00:20	0.996	76.805			
00:00:20	0.509	76.805			
00:00:20	0.292	76.805			
00:00:20	-0.206	76.805			
00:00:20	-0.198	76.805			
00:00:20	-0.126	76.805			
00:00:20	-0.091	76.805			
00:00:20	0.218	76.805			
00:00:20	0.085	76.805			
00:00:20	0.306	76.805			
00:00:20	0.506	76.805			
00:00:20	0.426	76.805			
00:00:20	0.816	76.805			
00:00:20	0.780	76.805			
00:00:20	0.765	76.805			
00:00:20	1.014	76.805			
00:00:20	0.877	76.805			
00:00:20	1.120	76.805			
00:00:20	0.986	76.805			
00:00:20	0.740	76.805			
00:00:20	0.777	76.805			
00:00:20	0.308	76.805			
00:00:20	0.308	76.805			
00:00:20	0.171	76.805			
00:00:20	-0.193	76.805			
00:00:20	-0.158	76.805			
00:00:20	-0.482	76.805			
00:00:20	-0.446	76.805			
00:00:20	-0.526	76.805			
00:00:20	-0.854	76.805			
00:00:20	-0.801	76.805			
00:00:20	-1.074	76.805			
00:00:20	-1.044	76.805			
00:00:20	-0.942	76.805			
00:00:20	-1.321	76.805			
00:00:20	-1.264	76.805			
00:00:20	-1.477	76.805			
00:00:20	-1.603	76.805			
00:00:20	-1.528	76.805			
00:00:20	-1.775	76.805			
00:00:20	-1.480	76.805			
00:00:20	-1.529	76.805			
00:00:20	-1.594	76.805			
00:00:20	-1.491	76.805			
00:00:20	-1.738	76.805			
00:00:20	-1.631	76.805			
00:00:20	-1.740	76.805			
00:00:20	-1.776	76.805			
00:00:20	-1.424	76.805			
00:00:20	-1.512	76.805			
00:00:20	-1.357	76.805			
00:00:20	-1.232	76.805			
00:00:20	-1.567	76.805			
00:00:20	-1.231	76.805			
00:00:20	-1.294	76.805			
00:00:20	-1.269	76.805			
00:00:20	-0.973	76.805			
00:00:20	-1.109	76.805			
00:00:20	-0.861	76.805			
00:00:20	-1.106	76.805			
00:00:20	-1.305	76.805			
00:00:20	-1.206	76.805			
00:00:20	-1.477	76.805			
00:00:21	-1.367	76.805			
00:00:21	-1.519	76.805			
00:00:21	-1.749	76.805			
00:00:21	-1.716	76.805			
00:00:21	-1.908	76.805			
00:00:21	-1.602	76.805			
00:00:21	-1.384	76.805			
00:00:21	-1.402	76.805			
00:00:21	-0.859	76.805			
00:00:21	-0.656	76.805			
00:00:21	0.092	76.805			
00:00:21	1.161	76.805			
00:00:21	2.327	76.805			
00:00:21	4.139	76.805			
00:00:21	5.589	76.805			
00:00:21	7.320	76.805			
00:00:21	9.078	76.805			
00:00:21	10.187	76.805			
00:00:21	11.572	76.805			
00:00:21	12.343	76.805			
00:00:21	13.010	76.805			
00:00:21	13.735	76.805			
00:00:21	13.684	76.805			
00:00:21	13.686	76.805			
00:00:21	13.273	76.805			
00:00:21	12.753	76.805			
00:00:21	12.530	76.805			
00:00:21	11.663	76.805			
00:00:21	11.122	76.805			
00:00:21	10.458	76.805			
00:00:21	9.441	76.805			
00:00:21	8.919	76.805			
00:00:21	8.023	71.776			
00:00:21	7.314	71.776			
00:00:21	6.765	71.776			
00:00:21	5.815	71.776			
00:00:21	5.433	71.781			
00:00:21	4.785	71.781			
00:00:21	4.178	71.781			
00:00:21	3.699	71.781			
00:00:21	2.759	71.781			
00:00:21	2.197	71.781			
00:00:21	1.318	71.781			
00:00:21	0.474	71.781			
00:00:21	-0.036	71.781			
00:00:21	-0.845	71.781			
00:00:21	-1.178	71.781			
00:00:21	-1.581	71.781			
00:00:21	-2.022	71.781			
00:00:21	-2.025	71.781			
00:00:21	-2.209	71.781			
00:00:21	-2.100	71.781			
00:00:21	-1.989	71.781			
00:00:21	-2.053	71.781			
00:00:21	-1.637	71.781			
00:00:21	-1.401	71.781			
00:00:21	-1.051	71.781			
00:00:21	-0.677	71.781			
00:00:21	-0.674	71.781			
00:00:21	-0.521	71.781			
00:00:21	-0.744	71.781			
00:00:21	-0.715	71.781			
00:00:21	-0.523	71.781			
00:00:21	-0.850	71.781			
00:00:21	-0.795	71.781			
00:00:21	-1.148	71.781			
00:00:21	-1.528	71.781			
00:00:21	-1.525	71.781			
00:00:21	-2.078	71.781			
00:00:21	-2.069	71.781			
00:00:21	-2.100	71.781			
00:00:21	-2.487	71.781			
00:00:21	-2.382	71.781			
00:00:21	-2.679	71.781			
00:00:21	-2.722	71.781			
00:00:21	-2.740	71.781			
00:00:21	-2.968	71.781			
00:00:21	-2.865	71.781			
00:00:21	-3.254	71.781			
00:00:21	-3.562	71.781			
00:00:21	-3.540	71.781			
00:00:21	-3.693	71.781			
00:00:21	-3.386	71.781			
00:00:21	-3.400	71.781			
00:00:21	-3.496	71.781			
00:00:21	-3.247	71.781			
00:00:21	-3.562	71.781			
00:00:21	-3.498	71.781			
00:00:21	-3.434	71.781			
00:00:21	-3.622	71.781			
00:00:21	-3.513	71.781			
00:00:21	-3.716	71.781			
00:00:21	-3.633	71.781			
00:00:21	-3.602	71.781			
00:00:21	-3.765	71.781			
00:00:21	-3.517	71.781			
00:00:21	-3.557	71.781			
00:00:21	-3.309	71.781			
00:00:21	-3.069	71.781			
00:00:21	-3.127	71.781			
00:00:21	-2.871	71.781			
00:00:21	-2.849	71.781			
00:00:21	-2.599	71.781			
00:00:21	-2.156	71.781			
00:00:21	-2.251	71.781			
00:00:21	-2.077	71.781			
00:00:21	-2.383	71.781			
00:00:21	-2.735	71.781			
00:00:21	-2.643	71.781			
00:00:21	-2.990	71.781			
00:00:21	-2.975	71.781			
00:00:21	-3.164	71.781			
00:00:21	-3.583	71.781			
00:00:21	-3.465	71.781			
00:00:21	-3.604	71.781			
00:00:21	-3.330	71.781			
00:00:21	-2.946	71.781			
00:00:21	-2.577	71.781			
00:00:21	-1.734	71.781			
00:00:21	-1.089	71.781			
00:00:21	-0.038	71.781			
00:00:21	1.336	71.781			
00:00:21	2.524	71.781			
00:00:21	4.135	71.781			
00:00:21	5.340	71.781			
00:00:21	6.371	71.781			
00:00:21	7.401	71.781			
00:00:21	7.904	71.781			
00:00:22	8.559	71.781			
00:00:22	8.762	71.781			
00:00:22	8.701	71.781			
00:00:22	8.873	71.781			
00:00:22	8.459	71.781			
00:00:22	8.292	71.781			
00:00:22	7.957	71.781			
00:00:22	7.291	71.781			
00:00:22	6.950	71.781			
00:00:22	6.305	71.781			
00:00:22	5.750	71.781			
00:00:22	5.347	71.781			
00:00:22	4.845	71.111			
00:00:22	4.777	71.111			
00:00:22	4.187	71.111			
00:00:22	3.691	71.111			
00:00:22	3.357	71.116			
00:00:22	2.553	71.116			
00:00:22	2.192	71.116			
00:00:22	1.627	71.116			
00:00:22	1.024	71.116			
00:00:22	0.712	71.116			
00:00:22	-0.084	71.116			
00:00:22	-0.472	71.116			
00:00:22	-0.941	71.116			
00:00:22	-1.382	71.116			
00:00:22	-1.327	71.116			
00:00:22	-1.614	71.116			
00:00:22	-1.438	71.116			
00:00:22	-1.597	71.116			
00:00:22	-1.849	71.116			
00:00:22	-1.452	71.116			
00:00:22	-1.455	71.116			
00:00:22	-1.260	71.116			
00:00:22	-0.972	71.116			
00:00:22	-1.109	71.116			
00:00:22	-0.865	71.116			
00:00:22	-1.033	71.116			
00:00:22	-1.068	71.116			
00:00:22	-0.932	71.116			
00:00:22	-1.209	71.116			
00:00:22	-1.104	71.116			
00:00:22	-1.279	71.116			
00:00:22	-1.353	71.116			
00:00:22	-1.183	71.116			
00:00:22	-1.604	71.116			
00:00:22	-1.799	71.116			
00:00:22	-2.054	71.116			
00:00:22	-2.417	71.116			
00:00:22	-2.325	71.116			
00:00:22	-2.570	71.116			
00:00:22	-2.645	71.116			
00:00:22	-2.632	71.116			
00:00:22	-2.970	71.116			
00:00:22	-2.948	71.116			
00:00:22	-3.326	71.116			
00:00:22	-3.511	71.116			
00:00:22	-3.502	71.116			
00:00:22	-3.777	71.116			
00:00:22	-3.721	71.116			
00:00:22	-3.952	71.116			
00:00:22	-3.974	71.116			
00:00:22	-3.866	71.116			
00:00:22	-4.016	71.116			
00:00:22	-3.847	71.116			
00:00:22	-3.993	71.116			
00:00:22	-4.197	71.116			
00:00:22	-4.158	71.116			
00:00:22	-4.612	71.116			
00:00:22	-4.594	71.116			
00:00:22	-4.726	71.116			
00:00:22	-5.003	71.116			
00:00:22	-4.726	71.116			
00:00:22	-4.985	71.116			
00:00:22	-4.936	71.116			
00:00:22	-4.850	71.116			
00:00:22	-5.119	71.116			
00:00:22	-4.761	71.116			
00:00:22	-4.762	71.116			
00:00:22	-4.656	71.116			
00:00:22	-4.542	71.116			
00:00:22	-4.677	71.116			
00:00:22	-4.492	71.116			
00:00:22	-4.615	71.116			
00:00:22	-4.591	71.116			
00:00:22	-4.249	71.116			
00:00:22	-4.185	71.116			
00:00:22	-3.781	71.116			
00:00:22	-3.753	71.116			
00:00:22	-3.884	71.116			
00:00:22	-3.594	71.116			
00:00:22	-3.741	71.116			
00:00:22	-3.614	71.116			
00:00:22	-3.796	71.116			
00:00:22	-4.078	71.116			
00:00:22	-3.739	71.116			
00:00:22	-3.659	71.116			
00:00:22	-3.179	71.116			
00:00:22	-2.598	71.116			
00:00:22	-2.237	71.116			
00:00:22	-1.115	71.116			
00:00:22	0.000	71.116			
00:00:22	1.217	71.116			
00:00:22	2.710	71.116			
00:00:22	3.757	71.116			
00:00:22	5.220	71.116			
00:00:22	6.317	71.116			
00:00:22	7.138	71.116			
00:00:22	7.896	71.116			
00:00:22	8.061	71.116			
00:00:22	8.457	71.116			
00:00:22	8.630	71.116			
00:00:22	8.481	71.116			
00:00:22	8.458	71.116			
00:00:22	7.872	71.116			
00:00:22	7.591	71.116			
00:00:22	7.153	71.116			
00:00:22	6.436	71.116			
00:00:22	6.252	71.116			
00:00:22	5.803	71.116			
00:00:22	5.615	71.111			
00:00:22	5.424	71.111			
00:00:22	4.717	71.111			
00:00:22	4.456	71.111			
00:00:22	3.720	71.116			
00:00:22	2.999	71.116			
00:00:22	2.526	71.116			
00:00:22	1.695	71.116			
00:00:23	1.456	71.116			
00:00:23	1.014	71.116			
00:00:23	0.564	71.116			
00:00:23	0.312	71.116			
00:00:23	-0.322	71.116			
00:00:23	-0.539	71.116			
00:00:23	-0.870	71.116			
00:00:23	-1.338	71.116			
00:00:23	-1.293	71.116			
00:00:23	-1.594	71.116			
00:00:23	-1.542	71.116			
00:00:23	-1.486	71.116			
00:00:23	-1.833	71.116			
00:00:23	-1.683	71.116			
00:00:23	-1.761	71.116			
00:00:23	-1.583	71.116			
00:00:23	-1.155	71.116			
00:00:23	-1.084	71.116			
00:00:23	-0.757	71.116			
00:00:23	-0.880	71.116			
00:00:23	-0.931	71.116			
00:00:23	-0.782	71.116			
00:00:23	-0.998	71.116			
00:00:23	-0.893	71.116			
00:00:23	-1.154	71.116			
00:00:23	-1.582	71.116			
00:00:23	-1.632	71.116			
00:00:23	-2.044	71.116			
00:00:23	-1.982	71.116			
00:00:23	-1.911	71.116			
00:00:23	-2.285	71.116			
00:00:23	-2.289	71.116			
00:00:23	-2.555	71.116			
00:00:23	-2.645	71.116			
00:00:23	-2.696	71.116			
00:00:23	-3.039	71.116			
00:00:23	-2.999	71.116			
00:00:23	-3.240	71.116			
00:00:23	-3.425	71.116			
00:00:23	-3.245	71.116			
00:00:23	-3.511	71.116			
00:00:23	-3.378	71.116			
00:00:23	-3.527	71.116			
00:00:23	-3.659	71.116			
00:00:23	-3.541	71.116			
00:00:23	-3.894	71.116			
00:00:23	-3.758	71.116			
00:00:23	-3.710	71.116			
00:00:23	-3.739	71.116			
00:00:23	-3.347	71.116			
00:00:23	-3.435	71.116			
00:00:23	-3.154	71.116			
00:00:23	-3.048	71.116			
00:00:23	-3.093	71.116			
00:00:23	-3.024	71.116			
00:00:23	-3.388	71.116			
00:00:23	-3.451	71.116			
00:00:23	-3.266	71.116			
00:00:23	-3.402	71.116			
00:00:23	-3.108	71.116			
00:00:23	-3.201	71.116			
00:00:23	-3.325	71.116			
00:00:23	-3.204	71.116			
00:00:23	-3.466	71.116			
00:00:23	-3.267	71.116			
00:00:23	-3.358	71.116			
00:00:23	-3.485	71.116			
00:00:23	-3.226	71.116			
00:00:23	-3.531	71.116			
00:00:23	-3.483	71.116			
00:00:23	-3.497	71.116			
00:00:23	-3.733	71.116			
00:00:23	-3.632	71.116			
00:00:23	-3.895	71.116			
00:00:23	-3.922	71.116			
00:00:23	-3.974	71.116			
00:00:23	-4.229	71.116			
00:00:23	-3.968	71.116			
00:00:23	-3.979	71.116			
00:00:23	-3.784	71.116			
00:00:23	-3.275	71.116			
00:00:23	-2.958	71.116			
00:00:23	-1.831	71.116			
00:00:23	-0.856	71.116			
00:00:23	0.354	71.116			
00:00:23	1.686	71.116			
00:00:23	2.496	71.116			
00:00:23	3.732	71.116			
00:00:23	4.739	71.116			
00:00:23	5.434	71.116			
00:00:23	6.275	71.116			
00:00:23	6.510	71.116			
00:00:23	6.891	71.116			
00:00:23	7.041	71.116			
00:00:23	6.759	71.116			
00:00:23	6.714	71.116			
00:00:23	6.253	71.116			
00:00:23	5.952	71.116			
00:00:23	5.700	71.116			
00:00:23	5.035	71.116			
00:00:23	4.878	71.116			
00:00:23	4.285	71.116			
00:00:23	3.765	71.116			
00:00:23	3.525	71.116			
00:00:23	3.025	69.818			
00:00:23	2.875	69.818			
00:00:23	2.526	69.818			
00:00:23	2.177	69.818			
00:00:23	1.883	69.823			
00:00:23	1.136	69.823			
00:00:23	0.872	69.823			
00:00:23	0.453	69.823			
00:00:23	-0.214	69.823			
00:00:23	-0.620	69.823			
00:00:23	-1.397	69.823			
00:00:23	-1.646	69.823			
00:00:23	-1.907	69.823			
00:00:23	-2.235	69.823			
00:00:23	-1.922	69.823			
00:00:23	-1.942	69.823			
00:00:23	-1.717	69.823			
00:00:23	-1.428	69.823			
00:00:23	-1.599	69.823			
00:00:23	-1.287	69.823			
00:00:23	-1.332	69.823			
00:00:23	-1.328	69.823			
00:00:23	-1.073	69.823			
00:00:23	-1.297	69.823			
00:00:24	-1.106	69.823			
00:00:24	-1.073	69.823			
00:00:24	-1.131	69.823			
00:00:24	-0.996	69.823			
00:00:24	-1.280	69.823			
00:00:24	-1.352	69.823			
00:00:24	-1.588	69.823			
00:00:24	-1.971	69.823			
00:00:24	-1.971	69.823			
00:00:24	-2.351	69.823			
00:00:24	-2.398	69.823			
00:00:24	-2.479	69.823			
00:00:24	-2.856	69.823			
00:00:24	-2.810	69.823			
00:00:24	-3.076	69.823			
00:00:24	-3.051	69.823			
00:00:24	-2.991	69.823			
00:00:24	-3.490	69.823			
00:00:24	-3.352	69.823			
00:00:24	-3.541	69.823			
00:00:24	-3.699	69.823			
00:00:24	-3.632	69.823			
00:00:24	-4.062	69.823			
00:00:24	-3.886	69.823			
00:00:24	-3.986	69.823			
00:00:24	-4.021	69.823			
00:00:24	-3.773	69.823			
00:00:24	-4.287	69.823			
00:00:24	-4.118	69.823			
00:00:24	-4.097	69.823			
00:00:24	-4.221	69.823			
00:00:24	-3.578	69.823			
00:00:24	-3.910	69.823			
00:00:24	-3.620	69.823			
00:00:24	-3.420	69.823			
00:00:24	-3.878	69.823			
00:00:24	-3.278	69.823			
00:00:24	-3.550	69.823			
00:00:24	-3.497	69.823			
00:00:24	-2.984	69.823			
00:00:24	-3.369	69.823			
00:00:24	-2.980	69.823			
00:00:24	-3.324	69.823			
00:00:24	-3.701	69.823			
00:00:24	-3.301	69.823			
00:00:24	-3.748	69.823			
00:00:24	-3.325	69.823			
00:00:24	-3.259	69.823			
00:00:24	-3.561	69.823			
00:00:24	-3.457	69.823			
00:00:24	-4.206	69.823			
00:00:24	-4.159	69.823			
00:00:24	-4.162	69.823			
00:00:24	-4.619	69.823			
00:00:24	-4.295	69.823			
00:00:24	-4.688	69.823			
00:00:24	-4.678	69.823			
00:00:24	-4.571	69.823			
00:00:24	-5.047	69.823			
00:00:24	-4.638	69.823			
00:00:24	-4.781	69.823			
00:00:24	-4.689	69.823			
00:00:24	-4.108	69.823			
00:00:24	-4.211	69.823			
00:00:24	-3.373	69.823			
00:00:24	-2.718	69.823			
00:00:24	-1.843	69.823			
00:00:24	-0.051	69.823			
00:00:24	1.006	69.823			
00:00:24	2.596	69.823			
00:00:24	3.699	69.823			
00:00:24	4.108	69.823			
00:00:24	5.064	69.823			
00:00:24	5.259	69.823			
00:00:24	5.887	69.823			
00:00:24	6.082	69.823			
00:00:24	5.798	69.823			
00:00:24	5.943	69.823			
00:00:24	5.171	69.823			
00:00:24	4.957	69.823			
00:00:24	4.959	69.823			
00:00:24	4.063	69.823			
00:00:24	4.058	69.823			
00:00:24	3.445	69.823			
00:00:24	3.033	69.818			
00:00:24	3.023	69.818			
00:00:24	2.230	69.818			
00:00:24	2.277	69.818			
00:00:24	1.790	69.823			
00:00:24	1.209	69.823			
00:00:24	1.334	69.823			
00:00:24	0.662	69.823			
00:00:24	0.399	69.823			
00:00:24	-0.009	69.823			
00:00:24	-0.629	69.823			
00:00:24	-0.553	69.823			
00:00:24	-1.221	69.823			
00:00:24	-1.522	69.823			
00:00:24	-1.853	69.823			
00:00:24	-2.254	69.823			
00:00:24	-1.817	69.823			
00:00:24	-2.037	69.823			
00:00:24	-1.968	69.823			
00:00:24	-1.671	69.823			
00:00:24	-1.855	69.823			
00:00:24	-1.321	69.823			
00:00:24	-1.408	69.823			
00:00:24	-1.298	69.823			
00:00:24	-0.909	69.823			
00:00:24	-1.237	69.823			
00:00:24	-0.901	69.823			
00:00:24	-0.957	69.823			
00:00:24	-1.076	69.823			
00:00:24	-0.809	69.823			
00:00:24	-1.389	69.823			
00:00:24	-1.493	69.823			
00:00:24	-1.847	69.823			
00:00:24	-2.209	69.823			
00:00:24	-1.983	69.823			
00:00:24	-2.413	69.823			
00:00:24	-2.390	69.823			
00:00:24	-2.389	69.823			
00:00:24	-2.679	69.823			
00:00:24	-2.518	69.823			
00:00:24	-2.806	69.823			
00:00:24	-2.984	69.823			
00:00:24	-2.860	69.823			
00:00:24	-3.178	69.823			
00:00:25	-2.981	69.823			
00:00:25	-3.278	69.823			
00:00:25	-3.393	69.823			
00:00:25	-3.157	69.823			
00:00:25	-3.458	69.823			
00:00:25	-3.194	69.823			
00:00:25	-3.223	69.823			
00:00:25	-3.350	69.823			
00:00:25	-2.913	69.823			
00:00:25	-3.268	69.823			
00:00:25	-3.156	69.823			
00:00:25	-3.328	69.823			
00:00:25	-3.638	69.823			
00:00:25	-3.235	69.823			
00:00:25	-3.395	69.823			
00:00:25	-3.301	69.823			
00:00:25	-3.145	69.823			
00:00:25	-3.370	69.823			
00:00:25	-3.128	69.823			
00:00:25	-3.494	69.823			
00:00:25	-3.647	69.823			
00:00:25	-3.522	69.823			
00:00:25	-3.949	69.823			
00:00:25	-3.724	69.823			
00:00:25	-3.784	69.823			
00:00:25	-3.807	69.823			
00:00:25	-3.493	69.823			
00:00:25	-3.975	69.823			
00:00:25	-3.888	69.823			
00:00:25	-4.003	69.823			
00:00:25	-4.281	69.823			
00:00:25	-4.021	69.823			
00:00:25	-4.258	69.823			
00:00:25	-4.196	69.823			
00:00:25	-4.058	69.823			
00:00:25	-4.159	69.823			
00:00:25	-3.753	69.823			
00:00:25	-4.054	69.823			
00:00:25	-4.337	69.823			
00:00:25	-4.471	69.823			
00:00:25	-4.938	69.823			
00:00:25	-4.533	69.823			
00:00:25	-4.412	69.823			
00:00:25	-4.103	69.823			
00:00:25	-3.413	69.823			
00:00:25	-3.059	69.823			
00:00:25	-1.974	69.823			
00:00:25	-0.829	69.823			
00:00:25	0.258	69.823			
00:00:25	1.695	69.823			
00:00:25	2.693	69.823			
00:00:25	3.982	69.823			
00:00:25	4.760	69.823			
00:00:25	4.966	69.823			
00:00:25	5.563	69.823			
00:00:25	5.482	69.823			
00:00:25	5.499	69.823			
00:00:25	5.325	69.823			
00:00:25	4.824	69.823			
00:00:25	4.840	69.823			
00:00:25	4.419	69.823			
00:00:25	3.896	69.823			
00:00:25	3.762	69.823			
00:00:25	3.252	69.823			
00:00:25	3.239	70.459			
00:00:25	2.649	70.459			
00:00:25	2.043	70.459			
00:00:25	1.917	70.459			
00:00:25	1.287	70.464			
00:00:25	1.329	70.464			
00:00:25	1.037	70.464			
00:00:25	0.584	70.464			
00:00:25	0.482	70.464			
00:00:25	-0.317	70.464			
00:00:25	-0.566	70.464			
00:00:25	-0.768	70.464			
00:00:25	-1.258	70.464			
00:00:25	-1.149	70.464			
00:00:25	-1.736	70.464			
00:00:25	-1.987	70.464			
00:00:25	-2.070	70.464			
00:00:25	-2.341	70.464			
00:00:25	-1.998	70.464			
00:00:25	-2.023	70.464			
00:00:25	-1.863	70.464			
00:00:25	-1.480	70.464			
00:00:25	-1.763	70.464			
00:00:25	-1.403	70.464			
00:00:25	-1.390	70.464			
00:00:25	-1.374	70.464			
00:00:25	-1.119	70.464			
00:00:25	-1.628	70.464			
00:00:25	-1.483	70.464			
00:00:25	-1.498	70.464			
00:00:25	-1.714	70.464			
00:00:25	-1.613	70.464			
00:00:25	-2.187	70.464			
00:00:25	-2.281	70.464			
00:00:25	-2.251	70.464			
00:00:25	-2.433	70.464			
00:00:25	-2.099	70.464			
00:00:25	-2.430	70.464			
00:00:25	-2.723	70.464			
00:00:25	-2.799	70.464			
00:00:25	-3.299	70.464			
00:00:25	-3.164	70.464			
00:00:25	-3.392	70.464			
00:00:25	-3.522	70.464			
00:00:25	-3.350	70.464			
00:00:25	-3.788	70.464			
00:00:25	-3.607	70.464			
00:00:25	-3.626	70.464			
00:00:25	-3.830	70.464			
00:00:25	-3.658	70.464			
00:00:25	-3.927	70.464			
00:00:25	-3.580	70.464			
00:00:25	-3.503	70.464			
00:00:25	-3.585	70.464			
00:00:25	-3.289	70.464			
00:00:25	-3.571	70.464			
00:00:25	-3.469	70.464			
00:00:25	-3.499	70.464			
00:00:25	-3.809	70.464			
00:00:25	-3.493	70.464			
00:00:25	-3.793	70.464			
00:00:25	-3.852	70.464			
00:00:25	-3.777	70.464			
00:00:25	-4.107	70.464			
00:00:26	-3.740	70.464			
00:00:26	-3.992	70.464			
00:00:26	-4.213	70.464			
00:00:26	-4.013	70.464			
00:00:26	-4.459	70.464			
00:00:26	-4.228	70.464			
00:00:26	-4.146	70.464			
00:00:26	-4.117	70.464			
00:00:26	-3.723	70.464			
00:00:26	-4.027	70.464			
00:00:26	-3.891	70.464			
00:00:26	-4.017	70.464			
00:00:26	-4.390	70.464			
00:00:26	-4.206	70.464			
00:00:26	-4.551	70.464			
00:00:26	-4.312	70.464			
00:00:26	-4.097	70.464			
00:00:26	-4.606	70.464			
00:00:26	-4.544	70.464			
00:00:26	-4.486	70.464			
00:00:26	-4.374	70.464			
00:00:26	-4.119	70.464			
00:00:26	-4.390	70.464			
00:00:26	-4.326	70.464			
00:00:26	-4.516	70.464			
00:00:26	-4.356	70.464			
00:00:26	-3.484	70.464			
00:00:26	-3.054	70.464			
00:00:26	-2.004	70.464			
00:00:26	-0.859	70.464			
00:00:26	0.311	70.464			
00:00:26	1.921	70.464			
00:00:26	2.903	70.464			
00:00:26	4.120	70.464			
00:00:26	5.107	70.464			
00:00:26	5.375	70.464			
00:00:26	5.982	70.464			
00:00:26	5.846	70.464			
00:00:26	5.713	70.464			
00:00:26	5.473	70.464			
00:00:26	4.821	70.464			
00:00:26	4.991	70.464			
00:00:26	4.531	70.464			
00:00:26	4.148	70.464			
00:00:26	4.123	70.464			
00:00:26	3.656	70.464			
00:00:26	3.580	70.464			
00:00:26	3.247	70.464			
00:00:26	2.810	69.818			
00:00:26	2.584	69.818			
00:00:26	1.960	69.818			
00:00:26	1.899	69.818			
00:00:26	1.728	69.823			
00:00:26	1.408	69.823			
00:00:26	1.278	69.823			
00:00:26	0.460	69.823			
00:00:26	0.061	69.823			
00:00:26	-0.249	69.823			
00:00:26	-0.871	69.823			
00:00:26	-0.813	69.823			
00:00:26	-1.219	69.823			
00:00:26	-1.451	69.823			
00:00:26	-1.454	69.823			
00:00:26	-1.726	69.823			
00:00:26	-1.443	69.823			
00:00:26	-1.421	69.823			
00:00:26	-1.249	69.823			
00:00:26	-0.741	69.823			
00:00:26	-0.798	69.823			
00:00:26	-0.645	69.823			
00:00:26	-0.843	69.823			
00:00:26	-1.146	69.823			
00:00:26	-0.858	69.823			
00:00:26	-1.079	69.823			
00:00:26	-1.019	69.823			
00:00:26	-1.091	69.823			
00:00:26	-1.504	69.823			
00:00:26	-1.293	69.823			
00:00:26	-1.625	69.823			
00:00:26	-1.729	69.823			
00:00:26	-1.713	69.823			
00:00:26	-2.134	69.823			
00:00:26	-2.068	69.823			
00:00:26	-2.344	69.823			
00:00:26	-2.513	69.823			
00:00:26	-2.267	69.823			
00:00:26	-2.385	69.823			
00:00:26	-2.136	69.823			
00:00:26	-2.276	69.823			
00:00:26	-2.608	69.823			
00:00:26	-2.529	69.823			
00:00:26	-2.931	69.823			
00:00:26	-2.800	69.823			
00:00:26	-2.949	69.823			
00:00:26	-3.204	69.823			
00:00:26	-3.043	69.823			
00:00:26	-3.413	69.823			
00:00:26	-3.348	69.823			
00:00:26	-3.346	69.823			
00:00:26	-3.804	69.823			
00:00:26	-3.624	69.823			
00:00:26	-3.929	69.823			
00:00:26	-3.789	69.823			
00:00:26	-3.567	69.823			
00:00:26	-4.005	69.823			
00:00:26	-3.763	69.823			
00:00:26	-3.780	69.823			
00:00:26	-3.713	69.823			
00:00:26	-3.393	69.823			
00:00:26	-3.630	69.823			
00:00:26	-3.485	69.823			
00:00:26	-3.491	69.823			
00:00:26	-3.705	69.823			
00:00:26	-3.639	69.823			
00:00:26	-3.980	69.823			
00:00:26	-3.858	69.823			
00:00:26	-3.729	69.823			
00:00:26	-3.799	69.823			
00:00:26	-3.458	69.823			
00:00:26	-3.688	69.823			
00:00:26	-3.696	69.823			
00:00:26	-3.608	69.823			
00:00:26	-3.989	69.823			
00:00:26	-3.815	69.823			
00:00:26	-3.934	69.823			
00:00:26	-3.828	69.823			
00:00:26	-3.535	69.823			
00:00:26	-3.793	69.823			
00:00:27	-3.805	69.823			
00:00:27	-4.175	69.823			
00:00:27	-4.288	69.823			
00:00:27	-3.924	69.823			
00:00:27	-4.156	69.823			
00:00:27	-3.885	69.823			
00:00:27	-3.915	69.823			
00:00:27	-4.245	69.823			
00:00:27	-4.056	69.823			
00:00:27	-4.285	69.823			
00:00:27	-3.962	69.823			
00:00:27	-3.372	69.823			
00:00:27	-2.824	69.823			
00:00:27	-1.501	69.823			
00:00:27	-0.540	69.823			
00:00:27	0.847	69.823			
00:00:27	2.510	69.823			
00:00:27	3.535	69.823			
00:00:27	4.768	69.823			
00:00:27	5.477	69.823			
00:00:27	6.023	69.823			
00:00:27	6.627	69.823			
00:00:27	6.575	69.823			
00:00:27	6.776	69.823			
00:00:27	6.637	69.823			
00:00:27	6.359	69.823			
00:00:27	6.291	69.823			
00:00:27	5.788	69.823			
00:00:27	5.675	69.823			
00:00:27	5.384	69.823			
00:00:27	4.784	69.823			
00:00:27	4.861	69.823			
00:00:27	4.586	67.965			
00:00:27	4.604	67.965			
00:00:27	4.428	67.965			
00:00:27	3.824	67.965			
00:00:27	3.738	67.970			
00:00:27	3.160	67.970			
00:00:27	2.714	67.970			
00:00:27	2.337	67.970			
00:00:27	1.739	67.970			
00:00:27	1.730	67.970			
00:00:27	1.138	67.970			
00:00:27	0.488	67.970			
00:00:27	0.147	67.970			
00:00:27	-0.417	67.970			
00:00:27	-0.275	67.970			
00:00:27	-0.483	67.970			
00:00:27	-0.683	67.970			
00:00:27	-0.560	67.970			
00:00:27	-0.925	67.970			
00:00:27	-0.696	67.970			
00:00:27	-0.697	67.970			
00:00:27	-0.882	67.970			
00:00:27	-0.450	67.970			
00:00:27	-0.546	67.970			
00:00:27	-0.329	67.970			
00:00:27	-0.062	67.970			
00:00:27	-0.100	67.970			
00:00:27	0.224	67.970			
00:00:27	0.026	67.970			
00:00:27	-0.025	67.970			
00:00:27	-0.018	67.970			
00:00:27	-0.490	67.970			
00:00:27	-0.467	67.970			
00:00:27	-0.759	67.970			
00:00:27	-1.002	67.970			
00:00:27	-0.962	67.970			
00:00:27	-1.356	67.970			
00:00:27	-1.358	67.970			
00:00:27	-1.558	67.970			
00:00:27	-1.846	67.970			
00:00:27	-1.675	67.970			
00:00:27	-2.081	67.970			
00:00:27	-2.119	67.970			
00:00:27	-2.150	67.970			
00:00:27	-2.559	67.970			
00:00:27	-2.376	67.970			
00:00:27	-2.660	67.970			
00:00:27	-2.651	67.970			
00:00:27	-2.574	67.970			
00:00:27	-2.887	67.970			
00:00:27	-2.704	67.970			
00:00:27	-2.945	67.970			
00:00:27	-2.975	67.970			
00:00:27	-2.908	67.970			
00:00:27	-3.322	67.970			
00:00:27	-3.207	67.970			
00:00:27	-3.377	67.970			
00:00:27	-3.449	67.970			
00:00:27	-3.077	67.970			
00:00:27	-3.297	67.970			
00:00:27	-3.095	67.970			
00:00:27	-3.140	67.970			
00:00:27	-3.513	67.970			
00:00:27	-3.351	67.970			
00:00:27	-3.617	67.970			
00:00:27	-3.488	67.970			
00:00:27	-3.335	67.970			
00:00:27	-3.407	67.970			
00:00:27	-3.122	67.970			
00:00:27	-3.325	67.970			
00:00:27	-3.356	67.970			
00:00:27	-3.123	67.970			
00:00:27	-3.288	67.970			
00:00:27	-3.094	67.970			
00:00:27	-3.372	67.970			
00:00:27	-3.531	67.970			
00:00:27	-3.307	67.970			
00:00:27	-3.451	67.970			
00:00:27	-3.172	67.970			
00:00:27	-3.290	67.970			
00:00:27	-3.526	67.970			
00:00:27	-3.539	67.970			
00:00:27	-3.927	67.970			
00:00:27	-3.831	67.970			
00:00:27	-3.852	67.970			
00:00:27	-4.038	67.970			
00:00:27	-3.868	67.970			
00:00:27	-4.285	67.970			
00:00:27	-4.307	67.970			
00:00:27	-4.159	67.970			
00:00:27	-4.394	67.970			
00:00:27	-3.981	67.970			
00:00:27	-3.906	67.970			
00:00:27	-3.487	67.970			
00:00:27	-2.620	67.970			
00:00:27	-2.009	67.970			
00:00:28	-0.559	67.970			
00:00:28	0.741	67.970			
00:00:28	2.194	67.970			
00:00:28	3.894	67.970			
00:00:28	4.901	67.970			
00:00:28	6.038	67.970			
00:00:28	6.747	67.970			
00:00:28	7.231	67.970			
00:00:28	7.983	67.970			
00:00:28	7.940	67.970			
00:00:28	8.128	67.970			
00:00:28	8.059	67.970			
00:00:28	7.611	67.970			
00:00:28	7.898	67.970			
00:00:28	7.542	67.970			
00:00:28	7.396	67.970			
00:00:28	7.358	67.970			
00:00:28	6.641	67.970			
00:00:28	6.559	67.970			
00:00:28	6.191	67.970			
00:00:28	5.796	65.641			
00:00:28	5.600	65.641			
00:00:28	4.968	65.641			
00:00:28	5.000	65.641			
00:00:28	4.662	65.646			
00:00:28	4.182	65.646			
00:00:28	3.896	65.646			
00:00:28	2.966	65.646			
00:00:28	2.480	65.646			
00:00:28	1.906	65.646			
00:00:28	1.169	65.646			
00:00:28	0.859	65.646			
00:00:28	0.199	65.646			
00:00:28	-0.001	65.646			
00:00:28	-0.076	65.646			
00:00:28	-0.401	65.646			
00:00:28	-0.057	65.646			
00:00:28	-0.170	65.646			
00:00:28	-0.086	65.646			
00:00:28	0.289	65.646			
00:00:28	0.236	65.646			
00:00:28	0.573	65.646			
00:00:28	0.494	65.646			
00:00:28	0.437	65.646			
00:00:28	0.641	65.646			
00:00:28	0.245	65.646			
00:00:28	0.490	65.646			
00:00:28	0.471	65.646			
00:00:28	0.169	65.646			
00:00:28	0.437	65.646			
00:00:28	-0.037	65.646			
00:00:28	0.005	65.646			
00:00:28	-0.133	65.646			
00:00:28	-0.602	65.646			
00:00:28	-0.612	65.646			
00:00:28	-0.997	65.646			
00:00:28	-1.115	65.646			
00:00:28	-1.173	65.646			
00:00:28	-1.632	65.646			
00:00:28	-1.553	65.646			
00:00:28	-1.957	65.646			
00:00:28	-2.138	65.646			
00:00:28	-1.971	65.646			
00:00:28	-2.433	65.646			
00:00:28	-2.177	65.646			
00:00:28	-2.331	65.646			
00:00:28	-2.562	65.646			
00:00:28	-2.711	65.646			
00:00:28	-3.322	65.646			
00:00:28	-3.150	65.646			
00:00:28	-3.209	65.646			
00:00:28	-3.398	65.646			
00:00:28	-2.965	65.646			
00:00:28	-3.092	65.646			
00:00:28	-2.955	65.646			
00:00:28	-2.799	65.646			
00:00:28	-2.815	65.646			
00:00:28	-2.560	65.646			
00:00:28	-2.779	65.646			
00:00:28	-2.833	65.646			
00:00:28	-2.872	65.646			
00:00:28	-3.328	65.646			
00:00:28	-3.123	65.646			
00:00:28	-3.229	65.646			
00:00:28	-3.227	65.646			
00:00:28	-3.056	65.646			
00:00:28	-3.313	65.646			
00:00:28	-3.031	65.646			
00:00:28	-3.009	65.646			
00:00:28	-3.041	65.646			
00:00:28	-2.622	65.646			
00:00:28	-2.812	65.646			
00:00:28	-2.640	65.646			
00:00:28	-2.812	65.646			
00:00:28	-3.173	65.646			
00:00:28	-3.048	65.646			
00:00:28	-3.411	65.646			
00:00:28	-3.215	65.646			
00:00:28	-2.995	65.646			
00:00:28	-3.305	65.646			
00:00:28	-3.344	65.646			
00:00:28	-3.932	65.646			
00:00:28	-4.025	65.646			
00:00:28	-4.078	65.646			
00:00:28	-4.452	65.646			
00:00:28	-4.078	65.646			
00:00:28	-4.245	65.646			
00:00:28	-4.397	65.646			
00:00:28	-4.161	65.646			
00:00:28	-4.571	65.646			
00:00:28	-4.131	65.646			
00:00:28	-3.631	65.646			
00:00:28	-2.996	65.646			
00:00:28	-1.788	65.646			
00:00:28	-0.791	65.646			
00:00:28	0.903	65.646			
00:00:28	2.655	65.646			
00:00:28	4.064	65.646			
00:00:28	5.759	65.646			
00:00:28	6.657	65.646			
00:00:28	7.631	65.646			
00:00:28	8.235	65.646			
00:00:28	8.404	65.646			
00:00:28	9.068	65.646			
00:00:28	9.143	65.646			
00:00:28	9.233	65.646			
00:00:28	9.405	65.646			
00:00:28	8.926	65.646			
00:00:29	8.992	65.646			
00:00:29	8.632	65.646			
00:00:29	8.155	65.646			
00:00:29	8.058	65.646			
00:00:29	7.419	65.646			
00:00:29	7.230	65.646			
00:00:29	6.765	65.646			
00:00:29	6.132	65.646			
00:00:29	6.002	67.368			
00:00:29	5.292	67.368			
00:00:29	4.854	67.368			
00:00:29	4.308	67.368			
00:00:29	3.492	67.373			
00:00:29	3.272	67.373			
00:00:29	2.521	67.373			
00:00:29	1.970	67.373			
00:00:29	1.456	67.373			
00:00:29	0.644	67.373			
00:00:29	0.443	67.373			
00:00:29	-0.082	67.373			
00:00:29	-0.335	67.373			
00:00:29	-0.067	67.373			
00:00:29	-0.232	67.373			
00:00:29	0.027	67.373			
00:00:29	0.110	67.373			
00:00:29	0.121	67.373			
00:00:29	0.475	67.373			
00:00:29	0.259	67.373			
00:00:29	0.581	67.373			
00:00:29	0.655	67.373			
00:00:29	0.541	67.373			
00:00:29	0.798	67.373			
00:00:29	0.362	67.373			
00:00:29	0.215	67.373			
00:00:29	0.133	67.373			
00:00:29	-0.161	67.373			
00:00:29	-0.024	67.373			
00:00:29	-0.358	67.373			
00:00:29	-0.462	67.373			
00:00:29	-0.589	67.373			
00:00:29	-1.316	67.373			
00:00:29	-1.303	67.373			
00:00:29	-1.604	67.373			
00:00:29	-1.824	67.373			
00:00:29	-1.671	67.373			
00:00:29	-2.054	67.373			
00:00:29	-2.089	67.373			
00:00:29	-2.403	67.373			
00:00:29	-2.885	67.373			
00:00:29	-2.898	67.373			
00:00:29	-3.272	67.373			
00:00:29	-3.326	67.373			
00:00:29	-3.373	67.373			
00:00:29	-3.584	67.373			
00:00:29	-3.345	67.373			
00:00:29	-3.512	67.373			
00:00:29	-3.440	67.373			
00:00:29	-3.365	67.373			
00:00:29	-3.354	67.373			
00:00:29	-2.899	67.373			
00:00:29	-2.909	67.373			
00:00:29	-2.772	67.373			
00:00:29	-2.739	67.373			
00:00:29	-3.278	67.373			
00:00:29	-3.177	67.373			
00:00:29	-3.284	67.373			
00:00:29	-3.237	67.373			
00:00:29	-2.915	67.373			
00:00:29	-3.226	67.373			
00:00:29	-2.990	67.373			
00:00:29	-3.022	67.373			
00:00:29	-3.299	67.373			
00:00:29	-3.167	67.373			
00:00:29	-3.363	67.373			
00:00:29	-3.023	67.373			
00:00:29	-2.986	67.373			
00:00:29	-3.168	67.373			
00:00:29	-2.855	67.373			
00:00:29	-3.318	67.373			
00:00:29	-3.440	67.373			
00:00:29	-3.483	67.373			
00:00:29	-3.848	67.373			
00:00:29	-3.538	67.373			
00:00:29	-3.735	67.373			
00:00:29	-3.848	67.373			
00:00:29	-3.705	67.373			
00:00:29	-4.104	67.373			
00:00:29	-4.020	67.373			
00:00:29	-4.101	67.373			
00:00:29	-4.407	67.373			
00:00:29	-4.211	67.373			
00:00:29	-4.395	67.373			
00:00:29	-4.234	67.373			
00:00:29	-4.431	67.373			
00:00:29	-4.678	67.373			
00:00:29	-4.296	67.373			
00:00:29	-4.385	67.373			
00:00:29	-3.653	67.373			
00:00:29	-2.647	67.373			
00:00:29	-1.725	67.373			
00:00:29	-0.001	67.373			
00:00:29	1.411	67.373			
00:00:29	3.024	67.373			
00:00:29	4.678	67.373			
00:00:29	5.841	67.373			
00:00:29	7.310	67.373			
00:00:29	8.322	67.373			
00:00:29	9.204	67.373			
00:00:29	10.133	67.373			
00:00:29	10.322	67.373			
00:00:29	11.005	67.373			
00:00:29	10.914	67.373			
00:00:29	10.649	67.373			
00:00:29	10.770	67.373			
00:00:29	10.169	67.373			
00:00:29	9.904	67.373			
00:00:29	9.481	67.373			
00:00:29	8.956	67.373			
00:00:29	8.897	67.373			
00:00:29	8.237	67.373			
00:00:29	7.870	67.965			
00:00:29	7.504	67.965			
00:00:29	6.563	67.965			
00:00:29	6.525	67.965			
00:00:29	6.068	67.970			
00:00:29	5.548	67.970			
00:00:29	5.198	67.970			
00:00:29	4.404	67.970			
00:00:30	3.973	67.970			
00:00:30	3.130	67.970			
00:00:30	2.315	67.970			
00:00:30	2.032	67.970			
00:00:30	1.243	67.970			
00:00:30	1.062	67.970			
00:00:30	0.782	67.970			
00:00:30	0.249	67.970			
00:00:30	0.335	67.970			
00:00:30	-0.022	67.970			
00:00:30	0.028	67.970			
00:00:30	0.015	67.970			
00:00:30	-0.247	67.970			
00:00:30	0.053	67.970			
00:00:30	-0.106	67.970			
00:00:30	0.105	67.970			
00:00:30	0.427	67.970			
00:00:30	0.112	67.970			
00:00:30	0.241	67.970			
00:00:30	-0.045	67.970			
00:00:30	-0.296	67.970			
00:00:30	-0.089	67.970			
00:00:30	-0.567	67.970			
00:00:30	-0.557	67.970			
00:00:30	-0.682	67.970			
00:00:30	-0.947	67.970			
00:00:30	-1.042	67.970			
00:00:30	-1.782	67.970			
00:00:30	-1.763	67.970			
00:00:30	-1.921	67.970			
00:00:30	-2.381	67.970			
00:00:30	-2.256	67.970			
00:00:30	-2.757	67.970			
00:00:30	-2.933	67.970			
00:00:30	-3.002	67.970			
00:00:30	-3.404	67.970			
00:00:30	-3.101	67.970			
00:00:30	-3.409	67.970			
00:00:30	-3.503	67.970			
00:00:30	-3.358	67.970			
00:00:30	-3.590	67.970			
00:00:30	-3.226	67.970			
00:00:30	-3.205	67.970			
00:00:30	-3.212	67.970			
00:00:30	-3.183	67.970			
00:00:30	-3.668	67.970			
00:00:30	-3.524	67.970			
00:00:30	-3.819	67.970			
00:00:30	-4.012	67.970			
00:00:30	-3.445	67.970			
00:00:30	-3.460	67.970			
00:00:30	-3.228	67.970			
00:00:30	-3.272	67.970			
00:00:30	-3.506	67.970			
00:00:30	-3.354	67.970			
00:00:30	-3.703	67.970			
00:00:30	-3.662	67.970			
00:00:30	-3.575	67.970			
00:00:30	-3.951	67.970			
00:00:30	-3.930	67.970			
00:00:30	-3.948	67.970			
00:00:30	-3.613	67.970			
00:00:30	-3.127	67.970			
00:00:30	-3.360	67.970			
00:00:30	-3.286	67.970			
00:00:30	-3.522	67.970			
00:00:30	-3.610	67.970			
00:00:30	-3.516	67.970			
00:00:30	-3.927	67.970			
00:00:30	-3.868	67.970			
00:00:30	-3.966	67.970			
00:00:30	-4.101	67.970			
00:00:30	-3.720	67.970			
00:00:30	-3.908	67.970			
00:00:30	-3.943	67.970			
00:00:30	-3.983	67.970			
00:00:30	-4.174	67.970			
00:00:30	-3.869	67.970			
00:00:30	-3.919	67.970			
00:00:30	-3.920	67.970			
00:00:30	-3.887	67.970			
00:00:30	-4.405	67.970			
00:00:30	-3.980	67.970			
00:00:30	-3.678	67.970			
00:00:30	-3.318	67.970			
00:00:30	-2.392	67.970			
00:00:30	-1.670	67.970			
00:00:30	-0.105	67.970			
00:00:30	1.392	67.970			
00:00:30	2.873	67.970			
00:00:30	4.796	67.970			
00:00:30	5.937	67.970			
00:00:30	7.379	67.970			
00:00:30	8.652	67.970			
00:00:30	9.571	67.970			
00:00:30	10.811	67.970			
00:00:30	11.184	67.970			
00:00:30	11.614	67.970			
00:00:30	11.852	67.970			
00:00:30	11.539	67.970			
00:00:30	11.578	67.970			
00:00:30	11.071	67.970			
00:00:30	10.503	67.970			
00:00:30	10.115	67.970			
00:00:30	9.401	67.970			
00:00:30	9.263	67.970			
00:00:30	8.649	67.970			
00:00:30	7.968	67.970			
00:00:30	7.612	66.783			
00:00:30	6.970	66.783			
00:00:30	6.534	66.783			
00:00:30	5.857	66.783			
00:00:30	5.178	66.788			
00:00:30	4.838	66.788			
00:00:30	4.064	66.788			
00:00:30	3.707	66.788			
00:00:30	3.144	66.788			
00:00:30	2.212	66.788			
00:00:30	1.674	66.788			
00:00:30	0.775	66.788			
00:00:30	0.348	66.788			
00:00:30	-0.044	66.788			
00:00:30	-0.522	66.788			
00:00:30	-0.353	66.788			
00:00:30	-0.485	66.788			
00:00:30	-0.484	66.788			
00:00:30	-0.471	66.788			
00:00:30	-0.890	66.788			
00:00:31	-0.605	66.788			
00:00:31	-0.646	66.788			
00:00:31	-0.804	66.788			
00:00:31	-0.394	66.788			
00:00:31	-0.546	66.788			
00:00:31	-0.327	66.788			
00:00:31	-0.393	66.788			
00:00:31	-0.711	66.788			
00:00:31	-0.493	66.788			
00:00:31	-0.970	66.788			
00:00:31	-0.972	66.788			
00:00:31	-1.022	66.788			
00:00:31	-1.641	66.788			
00:00:31	-1.703	66.788			
00:00:31	-2.122	66.788			
00:00:31	-2.139	66.788			
00:00:31	-2.106	66.788			
00:00:31	-2.374	66.788			
00:00:31	-2.210	66.788			
00:00:31	-2.439	66.788			
00:00:31	-2.599	66.788			
00:00:31	-2.613	66.788			
00:00:31	-3.210	66.788			
00:00:31	-3.125	66.788			
00:00:31	-3.415	66.788			
00:00:31	-3.722	66.788			
00:00:31	-3.525	66.788			
00:00:31	-3.715	66.788			
00:00:31	-3.608	66.788			
00:00:31	-3.705	66.788			
00:00:31	-3.931	66.788			
00:00:31	-3.640	66.788			
00:00:31	-3.930	66.788			
00:00:31	-3.678	66.788			
00:00:31	-3.535	66.788			
00:00:31	-3.913	66.788			
00:00:31	-3.790	66.788			
00:00:31	-4.061	66.788			
00:00:31	-4.075	66.788			
00:00:31	-3.890	66.788			
00:00:31	-4.153	66.788			
00:00:31	-3.721	66.788			
00:00:31	-3.765	66.788			
00:00:31	-3.754	66.788			
00:00:31	-3.419	66.788			
00:00:31	-3.767	66.788			
00:00:31	-3.588	66.788			
00:00:31	-3.531	66.788			
00:00:31	-3.607	66.788			
00:00:31	-3.251	66.788			
00:00:31	-3.659	66.788			
00:00:31	-3.503	66.788			
00:00:31	-3.345	66.788			
00:00:31	-3.496	66.788			
00:00:31	-3.121	66.788			
00:00:31	-3.362	66.788			
00:00:31	-3.293	66.788			
00:00:31	-3.029	66.788			
00:00:31	-3.443	66.788			
00:00:31	-3.500	66.788			
00:00:31	-3.668	66.788			
00:00:31	-3.670	66.788			
00:00:31	-3.432	66.788			
00:00:31	-3.642	66.788			
00:00:31	-3.335	66.788			
00:00:31	-3.406	66.788			
00:00:31	-3.611	66.788			
00:00:31	-3.421	66.788			
00:00:31	-3.794	66.788			
00:00:31	-3.672	66.788			
00:00:31	-3.652	66.788			
00:00:31	-3.431	66.788			
00:00:31	-2.319	66.788			
00:00:31	-1.671	66.788			
00:00:31	-0.331	66.788			
00:00:31	1.374	66.788			
00:00:31	2.932	66.788			
00:00:31	5.051	66.788			
00:00:31	6.516	66.788			
00:00:31	8.070	66.788			
00:00:31	9.494	66.788			
00:00:31	10.295	66.788			
00:00:31	11.264	66.788			
00:00:31	11.595	66.788			
00:00:31	11.822	66.788			
00:00:31	12.074	66.788			
00:00:31	11.668	66.788			
00:00:31	11.750	66.788			
00:00:31	11.300	66.788			
00:00:31	10.755	66.788			
00:00:31	10.469	66.788			
00:00:31	9.689	66.788			
00:00:31	9.250	66.788			
00:00:31	8.520	66.788			
00:00:31	7.630	66.788			
00:00:31	7.272	66.788			
00:00:31	6.560	66.783			
00:00:31	6.280	66.783			
00:00:31	5.877	66.783			
00:00:31	4.977	66.783			
00:00:31	4.467	66.788			
00:00:31	3.481	66.788			
00:00:31	2.686	66.788			
00:00:31	2.198	66.788			
00:00:31	1.188	66.788			
00:00:31	0.760	66.788			
00:00:31	0.099	66.788			
00:00:31	-0.552	66.788			
00:00:31	-0.986	66.788			
00:00:31	-1.610	66.788			
00:00:31	-1.507	66.788			
00:00:31	-1.257	66.788			
00:00:31	-1.064	66.788			
00:00:31	-0.754	66.788			
00:00:31	-1.005	66.788			
00:00:31	-0.618	66.788			
00:00:31	-0.577	66.788			
00:00:31	-0.770	66.788			
00:00:31	-0.335	66.788			
00:00:31	-0.704	66.788			
00:00:31	-0.651	66.788			
00:00:31	-0.504	66.788			
00:00:31	-0.725	66.788			
00:00:31	-0.617	66.788			
00:00:31	-1.099	66.788			
00:00:31	-1.249	66.788			
00:00:31	-1.307	66.788			
00:00:31	-1.918	66.788			
00:00:32	-1.924	77.576			
00:00:32	-1.980	77.576			
00:00:32	-2.032	77.576			
00:00:32	-1.873	77.576			
00:00:32	-2.334	77.581			
00:00:32	-2.153	77.581			
00:00:32	-2.427	77.581			
00:00:32	-2.958	77.581			
00:00:32	-3.033	77.581			
00:00:32	-3.427	77.581			
00:00:32	-3.275	77.581			
00:00:32	-3.340	77.581			
00:00:32	-3.832	77.581			
00:00:32	-3.828	77.581			
00:00:32	-4.224	77.581			
00:00:32	-4.134	77.581			
00:00:32	-4.031	77.581			
00:00:32	-4.322	77.581			
00:00:32	-4.022	77.581			
00:00:32	-4.048	77.581			
00:00:32	-4.105	77.581			
00:00:32	-3.835	77.581			
00:00:32	-4.173	77.581			
00:00:32	-3.904	77.581			
00:00:32	-4.066	77.581			
00:00:32	-4.189	77.581			
00:00:32	-3.833	77.581			
00:00:32	-4.041	77.581			
00:00:32	-3.760	77.581			
00:00:32	-3.607	77.581			
00:00:32	-3.740	77.581			
00:00:32	-3.503	77.581			
00:00:32	-3.642	77.581			
00:00:32	-3.494	77.581			
00:00:32	-3.371	77.581			
00:00:32	-3.434	77.581			
00:00:32	-2.988	77.581			
00:00:32	-3.048	77.581			
00:00:32	-3.173	77.581			
00:00:32	-2.999	77.581			
00:00:32	-3.182	77.581			
00:00:32	-3.034	77.581			
00:00:32	-3.129	77.581			
00:00:32	-3.419	77.581			
00:00:32	-3.497	77.581			
00:00:32	-3.975	77.581			
00:00:32	-3.860	77.581			
00:00:32	-4.044	77.581			
00:00:32	-4.210	77.581			
00:00:32	-3.899	77.581			
00:00:32	-4.256	77.581			
00:00:32	-4.097	77.581			
00:00:32	-4.000	77.581			
00:00:32	-4.154	77.581			
00:00:32	-3.732	77.581			
00:00:32	-3.703	77.581			
00:00:32	-3.070	77.581			
00:00:32	-2.335	77.581			
00:00:32	-1.889	77.581			
00:00:32	-0.276	77.581			
00:00:32	1.287	77.581			
00:00:32	3.143	77.581			
00:00:32	5.047	77.581			
00:00:32	6.539	77.581			
00:00:32	8.235	77.581			
00:00:32	9.149	77.581			
00:00:32	10.112	77.581			
00:00:32	11.202	77.581			
00:00:32	11.636	77.581			
00:00:32	12.091	77.581			
00:00:32	11.953	77.581			
00:00:32	11.654	77.581			
00:00:32	11.634	77.581			
00:00:32	10.987	77.581			
00:00:32	10.611	77.581			
00:00:32	10.298	77.581			
00:00:32	9.576	77.581			
00:00:32	9.292	77.581			
00:00:32	8.285	77.581			
00:00:32	7.480	77.581			
00:00:32	6.901	97.215			
00:00:32	6.055	97.215			
00:00:32	5.606	97.215			
00:00:32	4.813	97.215			
00:00:32	4.171	97.220			
00:00:32	3.718	97.220			
00:00:32	2.691	97.220			
00:00:32	2.027	97.220			
00:00:32	1.069	97.220			
00:00:32	0.220	97.220			
00:00:32	-0.068	97.220			
00:00:32	-0.980	97.220			
00:00:32	-1.357	97.220			
00:00:32	-1.596	97.220			
00:00:32	-1.936	97.220			
00:00:32	-1.599	97.220			
00:00:32	-1.909	97.220			
00:00:32	-1.551	97.220			
00:00:32	-1.235	97.220			
00:00:32	-1.432	97.220			
00:00:32	-1.050	97.220			
00:00:32	-1.161	97.220			
00:00:32	-1.068	97.220			
00:00:32	-0.861	97.220			
00:00:32	-1.139	97.220			
00:00:32	-0.836	97.220			
00:00:32	-0.879	97.220			
00:00:32	-0.877	97.220			
00:00:32	-0.583	97.220			
00:00:32	-0.923	97.220			
00:00:32	-1.057	97.220			
00:00:32	-1.289	97.220			
00:00:32	-1.591	97.220			
00:00:32	-1.600	97.220			
00:00:32	-2.162	97.220			
00:00:32	-2.249	97.220			
00:00:32	-2.372	97.220			
00:00:32	-2.860	97.220			
00:00:32	-2.804	97.220			
00:00:32	-3.120	97.220			
00:00:32	-3.058	97.220			
00:00:32	-3.118	97.220			
00:00:32	-3.399	97.220			
00:00:32	-3.193	97.220			
00:00:32	-3.504	97.220			
00:00:32	-3.593	97.220			
00:00:32	-3.498	97.220			
00:00:32	-3.903	97.220			
00:00:33	-3.769	97.220			
00:00:33	-3.840	97.220			
00:00:33	-4.007	97.220			
00:00:33	-3.748	97.220			
00:00:33	-3.923	97.220			
00:00:33	-3.659	97.220			
00:00:33	-3.658	97.220			
00:00:33	-3.864	97.220			
00:00:33	-3.579	97.220			
00:00:33	-3.871	97.220			
00:00:33	-3.824	97.220			
00:00:33	-3.849	97.220			
00:00:33	-4.012	97.220			
00:00:33	-3.577	97.220			
00:00:33	-3.618	97.220			
00:00:33	-3.493	97.220			
00:00:33	-3.350	97.220			
00:00:33	-3.610	97.220			
00:00:33	-3.336	97.220			
00:00:33	-3.551	97.220			
00:00:33	-3.499	97.220			
00:00:33	-3.031	97.220			
00:00:33	-3.254	97.220			
00:00:33	-2.941	97.220			
00:00:33	-3.047	97.220			
00:00:33	-3.394	97.220			
00:00:33	-3.242	97.220			
00:00:33	-3.561	97.220			
00:00:33	-3.282	97.220			
00:00:33	-3.225	97.220			
00:00:33	-3.450	97.220			
00:00:33	-3.119	97.220			
00:00:33	-3.447	97.220			
00:00:33	-3.465	97.220			
00:00:33	-3.602	97.220			
00:00:33	-4.185	97.220			
00:00:33	-3.888	97.220			
00:00:33	-4.029	97.220			
00:00:33	-3.885	97.220			
00:00:33	-3.428	97.220			
00:00:33	-3.276	97.220			
00:00:33	-2.255	97.220			
00:00:33	-1.510	97.220			
00:00:33	-0.175	97.220			
00:00:33	1.707	97.220			
00:00:33	3.060	97.220			
00:00:33	5.043	97.220			
00:00:33	6.759	97.220			
00:00:33	8.255	97.220			
00:00:33	10.053	97.220			
00:00:33	11.039	97.220			
00:00:33	12.184	97.220			
00:00:33	12.889	97.220			
00:00:33	13.117	97.220			
00:00:33	13.708	97.220			
00:00:33	13.374	97.220			
00:00:33	13.276	97.220			
00:00:33	12.998	97.220			
00:00:33	12.254	97.220			
00:00:33	11.859	97.220			
00:00:33	10.896	97.220			
00:00:33	10.129	97.220			
00:00:33	9.586	97.220			
00:00:33	8.686	97.220			
00:00:33	8.477	68.571			
00:00:33	7.713	68.571			
00:00:33	6.973	68.571			
00:00:33	6.424	68.571			
00:00:33	5.225	68.576			
00:00:33	4.543	68.576			
00:00:33	3.737	68.576			
00:00:33	2.638	68.576			
00:00:33	1.909	68.576			
00:00:33	0.731	68.576			
00:00:33	0.183	68.576			
00:00:33	-0.349	68.576			
00:00:33	-1.074	68.576			
00:00:33	-1.026	68.576			
00:00:33	-1.506	68.576			
00:00:33	-1.677	68.576			
00:00:33	-1.618	68.576			
00:00:33	-1.774	68.576			
00:00:33	-1.388	68.576			
00:00:33	-1.368	68.576			
00:00:33	-1.257	68.576			
00:00:33	-1.010	68.576			
00:00:33	-1.171	68.576			
00:00:33	-0.615	68.576			
00:00:33	-0.599	68.576			
00:00:33	-0.733	68.576			
00:00:33	-0.427	68.576			
00:00:33	-0.594	68.576			
00:00:33	-0.306	68.576			
00:00:33	-0.176	68.576			
00:00:33	-0.481	68.576			
00:00:33	-0.401	68.576			
00:00:33	-1.001	68.576			
00:00:33	-1.230	68.576			
00:00:33	-1.376	68.576			
00:00:33	-1.826	68.576			
00:00:33	-1.875	68.576			
00:00:33	-2.183	68.576			
00:00:33	-2.347	68.576			
00:00:33	-2.411	68.576			
00:00:33	-2.895	68.576			
00:00:33	-2.773	68.576			
00:00:33	-3.024	68.576			
00:00:33	-3.326	68.576			
00:00:33	-3.223	68.576			
00:00:33	-3.538	68.576			
00:00:33	-3.401	68.576			
00:00:33	-3.639	68.576			
00:00:33	-3.965	68.576			
00:00:33	-3.818	68.576			
00:00:33	-4.220	68.576			
00:00:33	-4.135	68.576			
00:00:33	-3.945	68.576			
00:00:33	-4.092	68.576			
00:00:33	-3.854	68.576			
00:00:33	-3.990	68.576			
00:00:33	-3.883	68.576			
00:00:33	-3.773	68.576			
00:00:33	-3.947	68.576			
00:00:33	-3.565	68.576			
00:00:33	-3.599	68.576			
00:00:33	-3.550	68.576			
00:00:33	-3.283	68.576			
00:00:33	-3.384	68.576			
00:00:34	-2.962	68.576			
00:00:34	-3.022	68.576			
00:00:34	-3.157	68.576			
00:00:34	-2.979	68.576			
00:00:34	-3.231	68.576			
00:00:34	-3.114	68.576			
00:00:34	-3.021	68.576			
00:00:34	-3.021	68.576			
00:00:34	-2.709	68.576			
00:00:34	-2.825	68.576			
00:00:34	-2.609	68.576			
00:00:34	-2.642	68.576			
00:00:34	-3.055	68.576			
00:00:34	-2.881	68.576			
00:00:34	-3.293	68.576			
00:00:34	-3.456	68.576			
00:00:34	-3.433	68.576			
00:00:34	-3.801	68.576			
00:00:34	-3.778	68.576			
00:00:34	-4.050	68.576			
00:00:34	-4.125	68.576			
00:00:34	-3.844	68.576			
00:00:34	-4.060	68.576			
00:00:34	-3.581	68.576			
00:00:34	-3.154	68.576			
00:00:34	-2.671	68.576			
00:00:34	-1.635	68.576			
00:00:34	-0.598	68.576			
00:00:34	1.192	68.576			
00:00:34	2.869	68.576			
00:00:34	4.429	68.576			
00:00:34	6.609	68.576			
00:00:34	7.970	68.576			
00:00:34	9.589	68.576			
00:00:34	10.955	68.576			
00:00:34	11.572	68.576			
00:00:34	12.526	68.576			
00:00:34	12.869	68.576			
00:00:34	13.303	68.576			
00:00:34	13.682	68.576			
00:00:34	13.279	68.576			
00:00:34	13.361	68.576			
00:00:34	12.760	68.576			
00:00:34	12.011	68.576			
00:00:34	11.467	68.576			
00:00:34	10.350	68.576			
00:00:34	9.826	68.576			
00:00:34	9.067	68.576			
00:00:34	8.285	67.965			
00:00:34	7.969	67.965			
00:00:34	6.984	67.965			
00:00:34	6.316	67.965			
00:00:34	5.618	67.970			
00:00:34	4.684	67.970			
00:00:34	4.017	67.970			
00:00:34	2.812	67.970			
00:00:34	2.051	67.970			
00:00:34	1.385	67.970			
00:00:34	0.486	67.970			
00:00:34	-0.024	67.970			
00:00:34	-0.906	67.970			
00:00:34	-1.426	67.970			
00:00:34	-1.511	67.970			
00:00:34	-1.914	67.970			
00:00:34	-1.623	67.970			
00:00:34	-1.656	67.970			
00:00:34	-1.724	67.970			
00:00:34	-1.331	67.970			
00:00:34	-1.464	67.970			
00:00:34	-1.209	67.970			
00:00:34	-1.128	67.970			
00:00:34	-1.131	67.970			
00:00:34	-0.769	67.970			
00:00:34	-1.099	67.970			
00:00:34	-0.883	67.970			
00:00:34	-0.748	67.970			
00:00:34	-0.951	67.970			
00:00:34	-0.677	67.970			
00:00:34	-0.915	67.970			
00:00:34	-1.090	67.970			
00:00:34	-1.226	67.970			
00:00:34	-1.612	67.970			
00:00:34	-1.458	67.970			
00:00:34	-1.823	67.970			
00:00:34	-2.047	67.970			
00:00:34	-1.926	67.970			
00:00:34	-2.454	67.970			
00:00:34	-2.496	67.970			
00:00:34	-2.861	67.970			
00:00:34	-3.245	67.970			
00:00:34	-3.222	67.970			
00:00:34	-3.653	67.970			
00:00:34	-3.614	67.970			
00:00:34	-3.626	67.970			
00:00:34	-3.901	67.970			
00:00:34	-3.670	67.970			
00:00:34	-3.906	67.970			
00:00:34	-3.662	67.970			
00:00:34	-3.662	67.970			
00:00:34	-3.908	67.970			
00:00:34	-3.590	67.970			
00:00:34	-3.878	67.970			
00:00:34	-4.025	67.970			
00:00:34	-3.954	67.970			
00:00:34	-4.231	67.970			
00:00:34	-4.030	67.970			
00:00:34	-4.215	67.970			
00:00:34	-4.166	67.970			
00:00:34	-3.779	67.970			
00:00:34	-3.871	67.970			
00:00:34	-3.433	67.970			
00:00:34	-3.355	67.970			
00:00:34	-3.408	67.970			
00:00:34	-3.028	67.970			
00:00:34	-3.335	67.970			
00:00:34	-3.122	67.970			
00:00:34	-2.867	67.970			
00:00:34	-2.968	67.970			
00:00:34	-2.824	67.970			
00:00:34	-3.080	67.970			
00:00:34	-3.026	67.970			
00:00:34	-2.924	67.970			
00:00:34	-3.184	67.970			
00:00:34	-3.048	67.970			
00:00:34	-3.226	67.970			
00:00:34	-3.237	67.970			
00:00:34	-3.312	67.970			
00:00:34	-3.891	67.970			
00:00:35	-3.762	67.970			
00:00:35	-3.941	67.970			
00:00:35	-4.158	67.970			
00:00:35	-3.959	67.970			
00:00:35	-4.295	67.970			
00:00:35	-4.145	67.970			
00:00:35	-4.077	67.970			
00:00:35	-3.906	67.970			
00:00:35	-3.003	67.970			
00:00:35	-2.244	67.970			
00:00:35	-1.044	67.970			
00:00:35	0.242	67.970			
00:00:35	1.476	67.970			
00:00:35	3.410	67.970			
00:00:35	4.947	67.970			
00:00:35	6.852	67.970			
00:00:35	8.662	67.970			
00:00:35	9.884	67.970			
00:00:35	11.399	67.970			
00:00:35	12.316	67.970			
00:00:35	12.943	67.970			
00:00:35	13.527	67.970			
00:00:35	13.378	67.970			
00:00:35	13.436	67.970			
00:00:35	13.002	67.970			
00:00:35	12.473	67.970			
00:00:35	12.281	67.970			
00:00:35	11.466	67.970			
00:00:35	11.120	67.970			
00:00:35	10.442	67.970			
00:00:35	9.514	67.970			
00:00:35	8.914	67.970			
00:00:35	7.918	68.571			
00:00:35	7.175	68.571			
00:00:35	6.374	68.571			
00:00:35	5.381	68.571			
00:00:35	5.033	68.576			
00:00:35	3.905	68.576			
00:00:35	2.769	68.576			
00:00:35	2.097	68.576			
00:00:35	0.973	68.576			
00:00:35	0.420	68.576			
00:00:35	-0.373	68.576			
00:00:35	-1.010	68.576			
00:00:35	-1.374	68.576			
00:00:35	-2.268	68.576			
00:00:35	-2.143	68.576			
00:00:35	-2.108	68.576			
00:00:35	-2.102	68.576			
00:00:35	-1.728	68.576			
00:00:35	-1.981	68.576			
00:00:35	-1.801	68.576			
00:00:35	-1.651	68.576			
00:00:35	-1.618	68.576			
00:00:35	-1.031	68.576			
00:00:35	-1.046	68.576			
00:00:35	-0.660	68.576			
00:00:35	-0.184	68.576			
00:00:35	-0.320	68.576			
00:00:35	-0.106	68.576			
00:00:35	-0.470	68.576			
00:00:35	-0.682	68.576			
00:00:35	-0.668	68.576			
00:00:35	-1.300	68.576			
00:00:35	-1.103	68.576			
00:00:35	-1.262	68.576			
00:00:35	-1.478	68.576			
00:00:35	-1.434	68.576			
00:00:35	-2.005	68.576			
00:00:35	-2.147	68.576			
00:00:35	-2.428	68.576			
00:00:35	-2.855	68.576			
00:00:35	-2.873	68.576			
00:00:35	-3.298	68.576			
00:00:35	-3.252	68.576			
00:00:35	-3.338	68.576			
00:00:35	-3.746	68.576			
00:00:35	-3.665	68.576			
00:00:35	-4.030	68.576			
00:00:35	-4.063	68.576			
00:00:35	-3.794	68.576			
00:00:35	-3.989	68.576			
00:00:35	-3.694	68.576			
00:00:35	-3.965	68.576			
00:00:35	-4.034	68.576			
00:00:35	-3.703	68.576			
00:00:35	-4.022	68.576			
00:00:35	-3.773	68.576			
00:00:35	-3.777	68.576			
00:00:35	-3.685	68.576			
00:00:35	-3.319	68.576			
00:00:35	-3.563	68.576			
00:00:35	-3.322	68.576			
00:00:35	-3.311	68.576			
00:00:35	-3.462	68.576			
00:00:35	-3.075	68.576			
00:00:35	-3.195	68.576			
00:00:35	-2.998	68.576			
00:00:35	-2.848	68.576			
00:00:35	-2.941	68.576			
00:00:35	-2.333	68.576			
00:00:35	-2.339	68.576			
00:00:35	-2.284	68.576			
00:00:35	-2.159	68.576			
00:00:35	-2.689	68.576			
00:00:35	-2.762	68.576			
00:00:35	-3.023	68.576			
00:00:35	-3.106	68.576			
00:00:35	-2.887	68.576			
00:00:35	-3.223	68.576			
00:00:35	-3.070	68.576			
00:00:35	-3.248	68.576			
00:00:35	-3.618	68.576			
00:00:35	-3.627	68.576			
00:00:35	-3.903	68.576			
00:00:35	-3.623	68.576			
00:00:35	-3.295	68.576			
00:00:35	-2.896	68.576			
00:00:35	-1.623	68.576			
00:00:35	-0.636	68.576			
00:00:35	0.820	68.576			
00:00:35	2.531	68.576			
00:00:35	3.897	68.576			
00:00:35	5.780	68.576			
00:00:35	7.301	68.576			
00:00:35	8.827	68.576			
00:00:35	10.300	68.576			
00:00:35	10.979	68.576			
00:00:36	11.932	68.576			
00:00:36	12.304	68.576			
00:00:36	12.332	68.576			
00:00:36	12.648	68.576			
00:00:36	12.262	68.576			
00:00:36	12.246	68.576			
00:00:36	11.966	68.576			
00:00:36	11.150	68.576			
00:00:36	10.795	68.576			
00:00:36	9.711	68.576			
00:00:36	8.964	68.576			
00:00:36	8.200	68.576			
00:00:36	7.226	71.111			
00:00:36	6.708	71.111			
00:00:36	5.618	71.111			
00:00:36	4.880	71.111			
00:00:36	4.336	71.116			
00:00:36	3.252	71.116			
00:00:36	2.687	71.116			
00:00:36	1.663	71.116			
00:00:36	0.749	71.116			
00:00:36	0.205	71.116			
00:00:36	-0.685	71.116			
00:00:36	-0.950	71.116			
00:00:36	-1.384	71.116			
00:00:36	-1.788	71.116			
00:00:36	-1.726	71.116			
00:00:36	-2.142	71.116			
00:00:36	-2.019	71.116			
00:00:36	-1.977	71.116			
00:00:36	-2.095	71.116			
00:00:36	-1.592	71.116			
00:00:36	-1.552	71.116			
00:00:36	-1.228	71.116			
00:00:36	-0.841	71.116			
00:00:36	-0.926	71.116			
00:00:36	-0.471	71.116			
00:00:36	-0.541	71.116			
00:00:36	-0.515	71.116			
00:00:36	-0.265	71.116			
00:00:36	-0.611	71.116			
00:00:36	-0.612	71.116			
00:00:36	-0.914	71.116			
00:00:36	-1.198	71.116			
00:00:36	-1.234	71.116			
00:00:36	-1.749	71.116			
00:00:36	-1.618	71.116			
00:00:36	-1.820	71.116			
00:00:36	-2.100	71.116			
00:00:36	-1.838	71.116			
00:00:36	-2.347	71.116			
00:00:36	-2.508	71.116			
00:00:36	-2.719	71.116			
