RAW Data export file (tab separated)


Client:	,kozawa
Session:	kozawa10
Date:	06-07-2020
Time:	10:53:59
Duration:	120	Seconds.
Output rate:	128	Samples/sec.

hh:mm:ss	128 SPS	32 SPS	
TIME	Sensor-G:BVP	HR (BVP)	Events	Segments	


00:00:00	11.196	70.000			
00:00:00	10.540	70.000			
00:00:00	9.773	70.000			
00:00:00	9.430	70.000			
00:00:00	8.494	70.000			
00:00:00	7.890	70.000			
00:00:00	7.197	70.000			
00:00:00	6.209	70.000			
00:00:00	5.777	70.000			
00:00:00	4.961	70.000			
00:00:00	4.263	70.000			
00:00:00	3.505	70.000			
00:00:00	2.189	70.000			
00:00:00	1.722	70.000			
00:00:00	0.930	70.000			
00:00:00	0.199	70.000			
00:00:00	-0.319	70.000			
00:00:00	-1.232	70.000			
00:00:00	-1.186	70.000			
00:00:00	-1.297	70.000			
00:00:00	-1.436	70.000			
00:00:00	-1.125	70.000			
00:00:00	-1.318	70.000			
00:00:00	-0.965	70.000			
00:00:00	-0.830	70.000			
00:00:00	-0.888	70.000			
00:00:00	-0.194	70.000			
00:00:00	-0.360	70.000			
00:00:00	-0.215	70.000			
00:00:00	0.049	70.000			
00:00:00	-0.210	70.000			
00:00:00	0.400	70.000			
00:00:00	0.149	70.000			
00:00:00	0.099	70.000			
00:00:00	0.491	70.000			
00:00:00	0.014	70.000			
00:00:00	0.332	70.000			
00:00:00	0.009	70.000			
00:00:00	-0.100	70.000			
00:00:00	0.303	70.000			
00:00:00	-0.367	70.000			
00:00:00	-0.310	70.000			
00:00:00	-0.659	70.000			
00:00:00	-1.132	70.000			
00:00:00	-0.677	70.000			
00:00:00	-1.191	70.000			
00:00:00	-1.148	70.000			
00:00:00	-1.149	70.000			
00:00:00	-1.752	70.000			
00:00:00	-1.585	70.000			
00:00:00	-2.092	70.000			
00:00:00	-2.153	70.000			
00:00:00	-2.156	70.000			
00:00:00	-2.612	70.000			
00:00:00	-2.015	70.000			
00:00:00	-2.352	70.000			
00:00:00	-2.527	70.000			
00:00:00	-2.329	70.000			
00:00:00	-2.905	70.000			
00:00:00	-2.490	70.000			
00:00:00	-2.737	70.000			
00:00:00	-2.953	70.000			
00:00:00	-2.393	70.000			
00:00:00	-2.888	70.000			
00:00:00	-2.540	70.000			
00:00:00	-2.455	70.000			
00:00:00	-2.779	70.000			
00:00:00	-2.317	70.000			
00:00:00	-2.774	70.000			
00:00:00	-2.691	70.000			
00:00:00	-2.433	70.000			
00:00:00	-2.701	70.000			
00:00:00	-2.205	70.000			
00:00:00	-2.435	70.000			
00:00:00	-2.464	70.000			
00:00:00	-2.291	70.000			
00:00:00	-2.764	70.000			
00:00:00	-2.204	70.000			
00:00:00	-2.066	70.000			
00:00:00	-1.872	70.000			
00:00:00	-1.038	70.000			
00:00:00	-0.825	70.000			
00:00:00	0.207	70.000			
00:00:00	1.126	70.000			
00:00:00	2.294	70.000			
00:00:00	4.150	70.000			
00:00:00	5.496	70.000			
00:00:00	7.251	70.000			
00:00:00	8.808	70.000			
00:00:00	9.838	70.000			
00:00:00	11.179	70.000			
00:00:00	11.635	70.000			
00:00:00	12.352	70.000			
00:00:00	12.835	70.000			
00:00:00	12.478	70.000			
00:00:00	12.569	70.000			
00:00:00	12.004	70.000			
00:00:00	11.767	70.000			
00:00:00	11.534	70.000			
00:00:00	10.520	70.000			
00:00:00	9.997	70.000			
00:00:00	9.063	70.000			
00:00:00	8.209	70.000			
00:00:00	7.959	70.000			
00:00:00	6.938	70.000			
00:00:00	6.512	70.000			
00:00:00	5.926	70.000			
00:00:00	4.998	70.000			
00:00:00	4.412	70.000			
00:00:00	3.231	70.000			
00:00:00	2.588	70.000			
00:00:00	2.039	70.000			
00:00:00	1.070	70.000			
00:00:00	0.743	70.000			
00:00:00	-0.180	70.000			
00:00:00	-0.853	70.000			
00:00:00	-1.296	70.000			
00:00:00	-2.005	70.000			
00:00:00	-1.771	70.000			
00:00:00	-1.964	70.000			
00:00:00	-1.998	70.000			
00:00:00	-1.795	70.000			
00:00:00	-2.127	70.000			
00:00:00	-1.773	70.000			
00:00:00	-1.772	70.000			
00:00:00	-1.764	70.000			
00:00:00	-1.229	70.000			
00:00:00	-1.250	70.000			
00:00:01	-0.762	70.000			
00:00:01	-0.694	70.000			
00:00:01	-0.856	70.000			
00:00:01	-0.403	70.000			
00:00:01	-0.513	70.000			
00:00:01	-0.267	70.000			
00:00:01	-0.130	70.000			
00:00:01	-0.608	70.000			
00:00:01	-0.473	70.000			
00:00:01	-0.881	70.000			
00:00:01	-0.927	70.000			
00:00:01	-0.847	70.000			
00:00:01	-1.348	70.000			
00:00:01	-1.146	70.000			
00:00:01	-1.332	70.000			
00:00:01	-1.390	70.000			
00:00:01	-1.277	70.000			
00:00:01	-1.684	70.000			
00:00:01	-1.719	70.000			
00:00:01	-1.948	70.000			
00:00:01	-2.400	70.000			
00:00:01	-2.172	70.000			
00:00:01	-2.514	70.000			
00:00:01	-2.384	70.000			
00:00:01	-2.343	70.000			
00:00:01	-2.716	70.000			
00:00:01	-2.520	70.000			
00:00:01	-2.884	70.000			
00:00:01	-2.820	70.000			
00:00:01	-2.606	70.000			
00:00:01	-2.767	70.000			
00:00:01	-2.411	70.000			
00:00:01	-2.463	70.000			
00:00:01	-2.432	70.000			
00:00:01	-2.360	70.000			
00:00:01	-2.731	70.000			
00:00:01	-2.329	70.000			
00:00:01	-2.228	70.000			
00:00:01	-2.385	70.000			
00:00:01	-2.153	70.000			
00:00:01	-2.508	70.000			
00:00:01	-2.231	70.000			
00:00:01	-2.147	70.000			
00:00:01	-2.401	70.000			
00:00:01	-2.126	70.000			
00:00:01	-2.478	70.000			
00:00:01	-2.373	70.000			
00:00:01	-2.346	70.000			
00:00:01	-2.577	70.000			
00:00:01	-2.238	70.000			
00:00:01	-2.268	70.000			
00:00:01	-2.148	70.000			
00:00:01	-1.705	70.000			
00:00:01	-1.511	70.000			
00:00:01	-0.433	70.000			
00:00:01	0.532	70.000			
00:00:01	1.866	70.000			
00:00:01	3.574	70.000			
00:00:01	4.789	70.000			
00:00:01	6.724	70.000			
00:00:01	8.510	70.000			
00:00:01	10.077	70.000			
00:00:01	11.901	70.000			
00:00:01	12.734	70.000			
00:00:01	13.553	70.000			
00:00:01	13.968	70.000			
00:00:01	13.859	70.000			
00:00:01	14.162	70.000			
00:00:01	13.706	70.000			
00:00:01	13.406	70.000			
00:00:01	13.076	70.000			
00:00:01	12.139	70.000			
00:00:01	11.911	70.000			
00:00:01	10.999	70.000			
00:00:01	10.202	70.000			
00:00:01	9.698	70.000			
00:00:01	8.651	71.111			
00:00:01	8.272	71.111			
00:00:01	7.445	71.111			
00:00:01	6.529	71.111			
00:00:01	5.985	71.116			
00:00:01	4.786	71.116			
00:00:01	4.105	71.116			
00:00:01	3.177	71.116			
00:00:01	2.040	71.116			
00:00:01	1.469	71.116			
00:00:01	0.361	71.116			
00:00:01	-0.039	71.116			
00:00:01	-0.414	71.116			
00:00:01	-1.130	71.116			
00:00:01	-1.224	71.116			
00:00:01	-1.674	71.116			
00:00:01	-1.916	71.116			
00:00:01	-1.849	71.116			
00:00:01	-2.123	71.116			
00:00:01	-1.741	71.116			
00:00:01	-1.644	71.116			
00:00:01	-1.752	71.116			
00:00:01	-1.382	71.116			
00:00:01	-1.557	71.116			
00:00:01	-1.096	71.116			
00:00:01	-0.958	71.116			
00:00:01	-0.935	71.116			
00:00:01	-0.516	71.116			
00:00:01	-0.691	71.116			
00:00:01	-0.569	71.116			
00:00:01	-0.622	71.116			
00:00:01	-0.864	71.116			
00:00:01	-0.372	71.116			
00:00:01	-0.725	71.116			
00:00:01	-0.760	71.116			
00:00:01	-0.814	71.116			
00:00:01	-1.350	71.116			
00:00:01	-1.174	71.116			
00:00:01	-1.438	71.116			
00:00:01	-1.465	71.116			
00:00:01	-1.346	71.116			
00:00:01	-1.613	71.116			
00:00:01	-1.465	71.116			
00:00:01	-1.799	71.116			
00:00:01	-2.078	71.116			
00:00:01	-1.930	71.116			
00:00:01	-2.401	71.116			
00:00:01	-2.408	71.116			
00:00:01	-2.433	71.116			
00:00:01	-2.755	71.116			
00:00:01	-2.513	71.116			
00:00:01	-2.696	71.116			
00:00:02	-2.697	71.116			
00:00:02	-2.824	71.116			
00:00:02	-3.127	71.116			
00:00:02	-2.776	71.116			
00:00:02	-2.860	71.116			
00:00:02	-2.727	71.116			
00:00:02	-2.396	71.116			
00:00:02	-2.632	71.116			
00:00:02	-2.364	71.116			
00:00:02	-2.340	71.116			
00:00:02	-2.536	71.116			
00:00:02	-2.326	71.116			
00:00:02	-2.604	71.116			
00:00:02	-2.252	71.116			
00:00:02	-2.318	71.116			
00:00:02	-2.547	71.116			
00:00:02	-2.251	71.116			
00:00:02	-2.474	71.116			
00:00:02	-2.157	71.116			
00:00:02	-2.075	71.116			
00:00:02	-2.304	71.116			
00:00:02	-1.899	71.116			
00:00:02	-1.976	71.116			
00:00:02	-1.400	71.116			
00:00:02	-0.548	71.116			
00:00:02	0.058	71.116			
00:00:02	1.601	71.116			
00:00:02	2.769	71.116			
00:00:02	4.409	71.116			
00:00:02	6.392	71.116			
00:00:02	7.765	71.116			
00:00:02	9.617	71.116			
00:00:02	10.917	71.116			
00:00:02	12.053	71.116			
00:00:02	13.270	71.116			
00:00:02	13.601	71.116			
00:00:02	14.147	71.116			
00:00:02	14.292	71.116			
00:00:02	14.001	71.116			
00:00:02	14.154	71.116			
00:00:02	13.501	71.116			
00:00:02	12.902	71.116			
00:00:02	12.497	71.116			
00:00:02	11.474	71.116			
00:00:02	10.874	71.116			
00:00:02	9.722	71.116			
00:00:02	8.938	71.116			
00:00:02	8.453	71.116			
00:00:02	7.477	78.367			
00:00:02	6.894	78.367			
00:00:02	5.988	78.367			
00:00:02	5.172	78.367			
00:00:02	4.561	78.372			
00:00:02	3.407	78.372			
00:00:02	2.755	78.372			
00:00:02	1.909	78.372			
00:00:02	0.959	78.372			
00:00:02	0.577	78.372			
00:00:02	-0.539	78.372			
00:00:02	-0.921	78.372			
00:00:02	-1.289	78.372			
00:00:02	-1.850	78.372			
00:00:02	-1.786	78.372			
00:00:02	-2.148	78.372			
00:00:02	-1.953	78.372			
00:00:02	-1.749	78.372			
00:00:02	-2.094	78.372			
00:00:02	-1.858	78.372			
00:00:02	-1.814	78.372			
00:00:02	-1.494	78.372			
00:00:02	-0.902	78.372			
00:00:02	-0.923	78.372			
00:00:02	-0.512	78.372			
00:00:02	-0.676	78.372			
00:00:02	-0.898	78.372			
00:00:02	-0.538	78.372			
00:00:02	-0.702	78.372			
00:00:02	-0.364	78.372			
00:00:02	-0.377	78.372			
00:00:02	-0.664	78.372			
00:00:02	-0.599	78.372			
00:00:02	-0.901	78.372			
00:00:02	-1.021	78.372			
00:00:02	-1.137	78.372			
00:00:02	-1.426	78.372			
00:00:02	-1.124	78.372			
00:00:02	-1.341	78.372			
00:00:02	-1.452	78.372			
00:00:02	-1.598	78.372			
00:00:02	-2.247	78.372			
00:00:02	-2.041	78.372			
00:00:02	-2.203	78.372			
00:00:02	-2.332	78.372			
00:00:02	-2.145	78.372			
00:00:02	-2.612	78.372			
00:00:02	-2.493	78.372			
00:00:02	-2.720	78.372			
00:00:02	-2.952	78.372			
00:00:02	-2.710	78.372			
00:00:02	-3.045	78.372			
00:00:02	-2.724	78.372			
00:00:02	-2.575	78.372			
00:00:02	-2.754	78.372			
00:00:02	-2.504	78.372			
00:00:02	-2.827	78.372			
00:00:02	-2.712	78.372			
00:00:02	-2.566	78.372			
00:00:02	-3.004	78.372			
00:00:02	-2.622	78.372			
00:00:02	-2.536	78.372			
00:00:02	-2.355	78.372			
00:00:02	-2.121	78.372			
00:00:02	-2.531	78.372			
00:00:02	-2.400	78.372			
00:00:02	-2.409	78.372			
00:00:02	-2.429	78.372			
00:00:02	-2.082	78.372			
00:00:02	-2.328	78.372			
00:00:02	-2.034	78.372			
00:00:02	-1.838	78.372			
00:00:02	-1.790	78.372			
00:00:02	-0.908	78.372			
00:00:02	-0.388	78.372			
00:00:02	0.653	78.372			
00:00:02	1.932	78.372			
00:00:02	3.192	78.372			
00:00:02	5.183	78.372			
00:00:02	6.661	78.372			
00:00:03	8.293	78.372			
00:00:03	10.031	78.372			
00:00:03	11.137	78.372			
00:00:03	12.519	78.372			
00:00:03	13.181	78.372			
00:00:03	13.650	78.372			
00:00:03	14.092	78.372			
00:00:03	13.755	78.372			
00:00:03	13.756	78.372			
00:00:03	13.326	78.372			
00:00:03	12.646	78.372			
00:00:03	12.256	78.372			
00:00:03	11.285	78.372			
00:00:03	10.773	78.372			
00:00:03	10.003	78.372			
00:00:03	9.095	78.372			
00:00:03	8.720	79.175			
00:00:03	7.843	79.175			
00:00:03	7.189	79.175			
00:00:03	6.574	79.175			
00:00:03	5.533	79.180			
00:00:03	5.195	79.180			
00:00:03	4.213	79.180			
00:00:03	3.321	79.180			
00:00:03	2.682	79.180			
00:00:03	1.297	79.180			
00:00:03	0.512	79.180			
00:00:03	-0.254	79.180			
00:00:03	-0.890	79.180			
00:00:03	-1.178	79.180			
00:00:03	-1.717	79.180			
00:00:03	-1.731	79.180			
00:00:03	-1.986	79.180			
00:00:03	-2.238	79.180			
00:00:03	-1.783	79.180			
00:00:03	-1.956	79.180			
00:00:03	-1.709	79.180			
00:00:03	-1.412	79.180			
00:00:03	-1.424	79.180			
00:00:03	-0.712	79.180			
00:00:03	-0.787	79.180			
00:00:03	-0.644	79.180			
00:00:03	-0.395	79.180			
00:00:03	-0.632	79.180			
00:00:03	-0.348	79.180			
00:00:03	-0.569	79.180			
00:00:03	-0.770	79.180			
00:00:03	-0.545	79.180			
00:00:03	-0.875	79.180			
00:00:03	-0.642	79.180			
00:00:03	-0.952	79.180			
00:00:03	-1.328	79.180			
00:00:03	-1.204	79.180			
00:00:03	-1.591	79.180			
00:00:03	-1.558	79.180			
00:00:03	-1.570	79.180			
00:00:03	-1.716	79.180			
00:00:03	-1.371	79.180			
00:00:03	-1.773	79.180			
00:00:03	-1.745	79.180			
00:00:03	-1.727	79.180			
00:00:03	-2.215	79.180			
00:00:03	-2.115	79.180			
00:00:03	-2.495	79.180			
00:00:03	-2.750	79.180			
00:00:03	-2.651	79.180			
00:00:03	-3.083	79.180			
00:00:03	-2.751	79.180			
00:00:03	-2.836	79.180			
00:00:03	-2.880	79.180			
00:00:03	-2.664	79.180			
00:00:03	-3.060	79.180			
00:00:03	-2.912	79.180			
00:00:03	-2.741	79.180			
00:00:03	-2.733	79.180			
00:00:03	-2.193	79.180			
00:00:03	-2.340	79.180			
00:00:03	-2.235	79.180			
00:00:03	-2.280	79.180			
00:00:03	-2.502	79.180			
00:00:03	-1.960	79.180			
00:00:03	-2.037	79.180			
00:00:03	-1.958	79.180			
00:00:03	-1.752	79.180			
00:00:03	-2.052	79.180			
00:00:03	-1.771	79.180			
00:00:03	-1.992	79.180			
00:00:03	-2.025	79.180			
00:00:03	-1.764	79.180			
00:00:03	-1.913	79.180			
00:00:03	-1.450	79.180			
00:00:03	-1.418	79.180			
00:00:03	-1.547	79.180			
00:00:03	-1.235	79.180			
00:00:03	-1.271	79.180			
00:00:03	-0.522	79.180			
00:00:03	0.404	79.180			
00:00:03	1.215	79.180			
00:00:03	2.871	79.180			
00:00:03	4.175	79.180			
00:00:03	5.935	79.180			
00:00:03	7.864	79.180			
00:00:03	9.272	79.180			
00:00:03	10.953	79.180			
00:00:03	11.987	79.180			
00:00:03	13.107	79.180			
00:00:03	13.990	79.180			
00:00:03	13.939	79.180			
00:00:03	14.247	79.180			
00:00:03	13.927	79.180			
00:00:03	13.563	79.180			
00:00:03	13.545	79.180			
00:00:03	12.624	79.180			
00:00:03	12.070	79.180			
00:00:03	11.365	79.180			
00:00:03	10.544	79.180			
00:00:03	10.109	75.294			
00:00:03	9.067	75.294			
00:00:03	8.458	75.294			
00:00:03	7.785	75.294			
00:00:03	6.807	75.299			
00:00:03	6.442	75.299			
00:00:03	5.320	75.299			
00:00:03	4.488	75.299			
00:00:03	3.796	75.299			
00:00:03	2.741	75.299			
00:00:03	2.149	75.299			
00:00:03	1.221	75.299			
00:00:04	0.399	75.299			
00:00:04	-0.112	75.299			
00:00:04	-0.937	75.299			
00:00:04	-1.151	75.299			
00:00:04	-1.689	75.299			
00:00:04	-2.101	75.299			
00:00:04	-1.868	75.299			
00:00:04	-2.039	75.299			
00:00:04	-1.764	75.299			
00:00:04	-1.630	75.299			
00:00:04	-1.733	75.299			
00:00:04	-1.355	75.299			
00:00:04	-1.504	75.299			
00:00:04	-1.168	75.299			
00:00:04	-0.806	75.299			
00:00:04	-0.960	75.299			
00:00:04	-0.451	75.299			
00:00:04	-0.401	75.299			
00:00:04	-0.355	75.299			
00:00:04	-0.313	75.299			
00:00:04	-0.820	75.299			
00:00:04	-0.626	75.299			
00:00:04	-0.784	75.299			
00:00:04	-1.029	75.299			
00:00:04	-0.854	75.299			
00:00:04	-1.252	75.299			
00:00:04	-1.091	75.299			
00:00:04	-1.359	75.299			
00:00:04	-1.696	75.299			
00:00:04	-1.442	75.299			
00:00:04	-1.850	75.299			
00:00:04	-1.843	75.299			
00:00:04	-1.813	75.299			
00:00:04	-2.241	75.299			
00:00:04	-2.182	75.299			
00:00:04	-2.665	75.299			
00:00:04	-2.895	75.299			
00:00:04	-2.749	75.299			
00:00:04	-2.931	75.299			
00:00:04	-2.589	75.299			
00:00:04	-2.697	75.299			
00:00:04	-2.701	75.299			
00:00:04	-2.488	75.299			
00:00:04	-2.902	75.299			
00:00:04	-2.784	75.299			
00:00:04	-2.854	75.299			
00:00:04	-2.875	75.299			
00:00:04	-2.348	75.299			
00:00:04	-2.472	75.299			
00:00:04	-2.317	75.299			
00:00:04	-2.111	75.299			
00:00:04	-2.252	75.299			
00:00:04	-1.966	75.299			
00:00:04	-2.192	75.299			
00:00:04	-2.043	75.299			
00:00:04	-1.948	75.299			
00:00:04	-2.168	75.299			
00:00:04	-1.783	75.299			
00:00:04	-1.910	75.299			
00:00:04	-1.946	75.299			
00:00:04	-1.776	75.299			
00:00:04	-2.259	75.299			
00:00:04	-1.992	75.299			
00:00:04	-2.122	75.299			
00:00:04	-2.083	75.299			
00:00:04	-1.653	75.299			
00:00:04	-1.781	75.299			
00:00:04	-1.200	75.299			
00:00:04	-0.591	75.299			
00:00:04	0.194	75.299			
00:00:04	1.774	75.299			
00:00:04	2.991	75.299			
00:00:04	4.846	75.299			
00:00:04	6.762	75.299			
00:00:04	8.184	75.299			
00:00:04	9.962	75.299			
00:00:04	11.077	75.299			
00:00:04	12.430	75.299			
00:00:04	13.761	75.299			
00:00:04	14.177	75.299			
00:00:04	14.802	75.299			
00:00:04	14.646	75.299			
00:00:04	14.396	75.299			
00:00:04	14.230	75.299			
00:00:04	13.448	75.299			
00:00:04	13.054	75.299			
00:00:04	12.252	75.299			
00:00:04	11.323	75.299			
00:00:04	10.718	75.299			
00:00:04	9.425	75.299			
00:00:04	8.735	75.299			
00:00:04	7.986	75.299			
00:00:04	7.101	76.040			
00:00:04	6.785	76.040			
00:00:04	5.959	76.040			
00:00:04	5.366	76.040			
00:00:04	4.624	76.045			
00:00:04	3.450	76.045			
00:00:04	2.980	76.045			
00:00:04	1.896	76.045			
00:00:04	0.940	76.045			
00:00:04	0.297	76.045			
00:00:04	-0.760	76.045			
00:00:04	-1.121	76.045			
00:00:04	-1.497	76.045			
00:00:04	-1.851	76.045			
00:00:04	-1.811	76.045			
00:00:04	-2.177	76.045			
00:00:04	-1.904	76.045			
00:00:04	-1.699	76.045			
00:00:04	-1.564	76.045			
00:00:04	-0.969	76.045			
00:00:04	-1.016	76.045			
00:00:04	-0.889	76.045			
00:00:04	-0.775	76.045			
00:00:04	-0.873	76.045			
00:00:04	-0.375	76.045			
00:00:04	-0.462	76.045			
00:00:04	-0.389	76.045			
00:00:04	-0.125	76.045			
00:00:04	-0.443	76.045			
00:00:04	-0.196	76.045			
00:00:04	-0.390	76.045			
00:00:04	-0.597	76.045			
00:00:04	-0.506	76.045			
00:00:04	-1.004	76.045			
00:00:04	-0.934	76.045			
00:00:04	-1.337	76.045			
00:00:05	-1.761	76.045			
00:00:05	-1.821	76.045			
00:00:05	-2.423	76.045			
00:00:05	-2.421	76.045			
00:00:05	-2.528	76.045			
00:00:05	-2.901	76.045			
00:00:05	-2.639	76.045			
00:00:05	-3.041	76.045			
00:00:05	-3.011	76.045			
00:00:05	-2.968	76.045			
00:00:05	-3.188	76.045			
00:00:05	-2.904	76.045			
00:00:05	-3.138	76.045			
00:00:05	-3.070	76.045			
00:00:05	-2.784	76.045			
00:00:05	-3.089	76.045			
00:00:05	-2.849	76.045			
00:00:05	-2.853	76.045			
00:00:05	-2.936	76.045			
00:00:05	-2.637	76.045			
00:00:05	-2.916	76.045			
00:00:05	-2.602	76.045			
00:00:05	-2.413	76.045			
00:00:05	-2.328	76.045			
00:00:05	-1.856	76.045			
00:00:05	-2.015	76.045			
00:00:05	-1.784	76.045			
00:00:05	-1.770	76.045			
00:00:05	-1.992	76.045			
00:00:05	-1.554	76.045			
00:00:05	-1.687	76.045			
00:00:05	-1.645	76.045			
00:00:05	-1.635	76.045			
00:00:05	-2.089	76.045			
00:00:05	-1.821	76.045			
00:00:05	-2.123	76.045			
00:00:05	-2.142	76.045			
00:00:05	-1.797	76.045			
00:00:05	-1.935	76.045			
00:00:05	-1.372	76.045			
00:00:05	-1.141	76.045			
00:00:05	-0.658	76.045			
00:00:05	0.535	76.045			
00:00:05	1.456	76.045			
00:00:05	3.002	76.045			
00:00:05	4.538	76.045			
00:00:05	5.985	76.045			
00:00:05	7.875	76.045			
00:00:05	9.394	76.045			
00:00:05	10.991	76.045			
00:00:05	12.316	76.045			
00:00:05	12.933	76.045			
00:00:05	13.844	76.045			
00:00:05	14.134	76.045			
00:00:05	14.415	76.045			
00:00:05	14.529	76.045			
00:00:05	13.951	76.045			
00:00:05	13.792	76.045			
00:00:05	13.103	76.045			
00:00:05	12.207	76.045			
00:00:05	11.763	76.045			
00:00:05	10.723	76.045			
00:00:05	10.346	76.045			
00:00:05	9.513	76.045			
00:00:05	8.421	76.040			
00:00:05	7.762	76.040			
00:00:05	6.686	76.040			
00:00:05	6.126	76.040			
00:00:05	5.477	76.045			
00:00:05	4.582	76.045			
00:00:05	4.164	76.045			
00:00:05	3.100	76.045			
00:00:05	2.394	76.045			
00:00:05	1.590	76.045			
00:00:05	0.472	76.045			
00:00:05	0.188	76.045			
00:00:05	-0.524	76.045			
00:00:05	-0.995	76.045			
00:00:05	-1.188	76.045			
00:00:05	-1.733	76.045			
00:00:05	-1.595	76.045			
00:00:05	-1.523	76.045			
00:00:05	-1.378	76.045			
00:00:05	-0.752	76.045			
00:00:05	-0.816	76.045			
00:00:05	-0.644	76.045			
00:00:05	-0.527	76.045			
00:00:05	-0.456	76.045			
00:00:05	0.083	76.045			
00:00:05	0.059	76.045			
00:00:05	0.273	76.045			
00:00:05	0.284	76.045			
00:00:05	0.015	76.045			
00:00:05	0.171	76.045			
00:00:05	-0.207	76.045			
00:00:05	-0.380	76.045			
00:00:05	-0.385	76.045			
00:00:05	-0.892	76.045			
00:00:05	-0.713	76.045			
00:00:05	-1.055	76.045			
00:00:05	-1.360	76.045			
00:00:05	-1.177	76.045			
00:00:05	-1.662	76.045			
00:00:05	-1.534	76.045			
00:00:05	-1.804	76.045			
00:00:05	-2.145	76.045			
00:00:05	-1.819	76.045			
00:00:05	-2.026	76.045			
00:00:05	-1.983	76.045			
00:00:05	-2.085	76.045			
00:00:05	-2.394	76.045			
00:00:05	-2.102	76.045			
00:00:05	-2.467	76.045			
00:00:05	-2.673	76.045			
00:00:05	-2.651	76.045			
00:00:05	-2.890	76.045			
00:00:05	-2.491	76.045			
00:00:05	-2.453	76.045			
00:00:05	-2.429	76.045			
00:00:05	-2.181	76.045			
00:00:05	-2.350	76.045			
00:00:05	-2.055	76.045			
00:00:05	-1.956	76.045			
00:00:05	-1.927	76.045			
00:00:05	-1.567	76.045			
00:00:05	-1.836	76.045			
00:00:05	-1.733	76.045			
00:00:05	-1.723	76.045			
00:00:06	-1.859	76.045			
00:00:06	-1.595	76.045			
00:00:06	-1.875	76.045			
00:00:06	-1.738	76.045			
00:00:06	-1.701	76.045			
00:00:06	-1.937	76.045			
00:00:06	-1.610	76.045			
00:00:06	-1.884	76.045			
00:00:06	-1.751	76.045			
00:00:06	-1.465	76.045			
00:00:06	-1.738	76.045			
00:00:06	-1.525	76.045			
00:00:06	-1.800	76.045			
00:00:06	-1.887	76.045			
00:00:06	-1.686	76.045			
00:00:06	-1.688	76.045			
00:00:06	-0.764	76.045			
00:00:06	-0.078	76.045			
00:00:06	0.739	76.045			
00:00:06	2.346	76.045			
00:00:06	3.391	76.045			
00:00:06	5.248	76.045			
00:00:06	7.237	76.045			
00:00:06	8.716	76.045			
00:00:06	10.584	76.045			
00:00:06	11.813	76.045			
00:00:06	12.970	76.045			
00:00:06	13.909	76.045			
00:00:06	14.134	76.045			
00:00:06	14.701	76.045			
00:00:06	14.492	76.045			
00:00:06	14.269	76.045			
00:00:06	14.147	76.045			
00:00:06	13.419	76.045			
00:00:06	13.125	76.045			
00:00:06	12.295	76.045			
00:00:06	11.292	76.045			
00:00:06	10.761	76.045			
00:00:06	9.736	76.045			
00:00:06	9.188	76.045			
00:00:06	8.449	73.846			
00:00:06	7.498	73.846			
00:00:06	6.918	73.846			
00:00:06	5.774	73.846			
00:00:06	5.280	73.851			
00:00:06	4.554	73.851			
00:00:06	3.332	73.851			
00:00:06	2.690	73.851			
00:00:06	1.691	73.851			
00:00:06	0.909	73.851			
00:00:06	0.321	73.851			
00:00:06	-0.738	73.851			
00:00:06	-0.936	73.851			
00:00:06	-1.420	73.851			
00:00:06	-1.654	73.851			
00:00:06	-1.545	73.851			
00:00:06	-1.840	73.851			
00:00:06	-1.566	73.851			
00:00:06	-1.554	73.851			
00:00:06	-1.698	73.851			
00:00:06	-1.346	73.851			
00:00:06	-1.299	73.851			
00:00:06	-0.793	73.851			
00:00:06	-0.420	73.851			
00:00:06	-0.397	73.851			
00:00:06	-0.050	73.851			
00:00:06	-0.200	73.851			
00:00:06	0.031	73.851			
00:00:06	0.073	73.851			
00:00:06	-0.415	73.851			
00:00:06	-0.327	73.851			
00:00:06	-0.779	73.851			
00:00:06	-0.906	73.851			
00:00:06	-0.866	73.851			
00:00:06	-1.261	73.851			
00:00:06	-1.286	73.851			
00:00:06	-1.678	73.851			
00:00:06	-2.022	73.851			
00:00:06	-1.807	73.851			
00:00:06	-2.035	73.851			
00:00:06	-1.779	73.851			
00:00:06	-1.772	73.851			
00:00:06	-2.216	73.851			
00:00:06	-2.114	73.851			
00:00:06	-2.575	73.851			
00:00:06	-2.615	73.851			
00:00:06	-2.591	73.851			
00:00:06	-2.772	73.851			
00:00:06	-2.373	73.851			
00:00:06	-2.757	73.851			
00:00:06	-2.778	73.851			
00:00:06	-2.529	73.851			
00:00:06	-2.745	73.851			
00:00:06	-2.407	73.851			
00:00:06	-2.518	73.851			
00:00:06	-2.436	73.851			
00:00:06	-2.154	73.851			
00:00:06	-2.440	73.851			
00:00:06	-2.257	73.851			
00:00:06	-2.299	73.851			
00:00:06	-2.318	73.851			
00:00:06	-1.872	73.851			
00:00:06	-2.085	73.851			
00:00:06	-1.819	73.851			
00:00:06	-1.636	73.851			
00:00:06	-1.917	73.851			
00:00:06	-1.588	73.851			
00:00:06	-1.865	73.851			
00:00:06	-1.818	73.851			
00:00:06	-1.716	73.851			
00:00:06	-1.965	73.851			
00:00:06	-1.635	73.851			
00:00:06	-1.589	73.851			
00:00:06	-1.617	73.851			
00:00:06	-1.510	73.851			
00:00:06	-1.941	73.851			
00:00:06	-1.916	73.851			
00:00:06	-2.168	73.851			
00:00:06	-2.179	73.851			
00:00:06	-1.597	73.851			
00:00:06	-1.498	73.851			
00:00:06	-0.701	73.851			
00:00:06	0.092	73.851			
00:00:06	1.242	73.851			
00:00:06	2.857	73.851			
00:00:06	3.991	73.851			
00:00:06	5.840	73.851			
00:00:06	7.686	73.851			
00:00:07	9.166	73.851			
00:00:07	10.857	73.851			
00:00:07	11.880	73.851			
00:00:07	13.079	73.851			
00:00:07	14.094	73.851			
00:00:07	14.266	73.851			
00:00:07	14.691	73.851			
00:00:07	14.260	73.851			
00:00:07	13.837	73.851			
00:00:07	13.672	73.851			
00:00:07	12.839	73.851			
00:00:07	12.459	73.851			
00:00:07	11.773	73.851			
00:00:07	10.979	73.851			
00:00:07	10.534	73.851			
00:00:07	9.472	73.851			
00:00:07	8.849	73.846			
00:00:07	8.158	73.846			
00:00:07	7.268	73.846			
00:00:07	6.792	73.846			
00:00:07	5.883	73.851			
00:00:07	5.160	73.851			
00:00:07	4.398	73.851			
00:00:07	3.249	73.851			
00:00:07	2.672	73.851			
00:00:07	1.661	73.851			
00:00:07	0.918	73.851			
00:00:07	0.291	73.851			
00:00:07	-0.786	73.851			
00:00:07	-1.087	73.851			
00:00:07	-1.494	73.851			
00:00:07	-1.705	73.851			
00:00:07	-1.566	73.851			
00:00:07	-1.899	73.851			
00:00:07	-1.507	73.851			
00:00:07	-1.321	73.851			
00:00:07	-1.247	73.851			
00:00:07	-0.804	73.851			
00:00:07	-0.763	73.851			
00:00:07	-0.402	73.851			
00:00:07	-0.134	73.851			
00:00:07	-0.304	73.851			
00:00:07	-0.114	73.851			
00:00:07	-0.472	73.851			
00:00:07	-0.638	73.851			
00:00:07	-0.512	73.851			
00:00:07	-0.565	73.851			
00:00:07	-0.255	73.851			
00:00:07	-0.481	73.851			
00:00:07	-0.542	73.851			
00:00:07	-0.540	73.851			
00:00:07	-1.061	73.851			
00:00:07	-0.920	73.851			
00:00:07	-1.104	73.851			
00:00:07	-1.383	73.851			
00:00:07	-1.181	73.851			
00:00:07	-1.629	73.851			
00:00:07	-1.582	73.851			
00:00:07	-1.711	73.851			
00:00:07	-1.926	73.851			
00:00:07	-1.673	73.851			
00:00:07	-2.022	73.851			
00:00:07	-2.069	73.851			
00:00:07	-2.159	73.851			
00:00:07	-2.546	73.851			
00:00:07	-2.350	73.851			
00:00:07	-2.670	73.851			
00:00:07	-2.729	73.851			
00:00:07	-2.528	73.851			
00:00:07	-2.862	73.851			
00:00:07	-2.749	73.851			
00:00:07	-2.930	73.851			
00:00:07	-2.973	73.851			
00:00:07	-2.687	73.851			
00:00:07	-2.799	73.851			
00:00:07	-2.460	73.851			
00:00:07	-2.325	73.851			
00:00:07	-2.263	73.851			
00:00:07	-1.756	73.851			
00:00:07	-1.828	73.851			
00:00:07	-1.552	73.851			
00:00:07	-1.348	73.851			
00:00:07	-1.351	73.851			
00:00:07	-0.952	73.851			
00:00:07	-1.276	73.851			
00:00:07	-1.233	73.851			
00:00:07	-1.069	73.851			
00:00:07	-1.285	73.851			
00:00:07	-0.953	73.851			
00:00:07	-1.193	73.851			
00:00:07	-1.212	73.851			
00:00:07	-1.223	73.851			
00:00:07	-1.550	73.851			
00:00:07	-1.363	73.851			
00:00:07	-1.480	73.851			
00:00:07	-1.459	73.851			
00:00:07	-0.985	73.851			
00:00:07	-0.810	73.851			
00:00:07	0.123	73.851			
00:00:07	1.159	73.851			
00:00:07	2.283	73.851			
00:00:07	4.210	73.851			
00:00:07	5.673	73.851			
00:00:07	7.583	73.851			
00:00:07	9.276	73.851			
00:00:07	10.435	73.851			
00:00:07	11.835	73.851			
00:00:07	12.546	73.851			
00:00:07	13.270	73.851			
00:00:07	13.637	73.851			
00:00:07	13.274	73.851			
00:00:07	13.513	73.851			
00:00:07	13.135	73.851			
00:00:07	12.800	73.851			
00:00:07	12.383	73.851			
00:00:07	11.482	73.851			
00:00:07	10.966	73.851			
00:00:07	10.097	73.851			
00:00:07	9.140	73.851			
00:00:07	8.674	73.851			
00:00:07	7.771	73.846			
00:00:07	7.179	73.846			
00:00:07	6.442	73.846			
00:00:07	5.503	73.846			
00:00:07	5.093	73.851			
00:00:07	3.916	73.851			
00:00:07	3.116	73.851			
00:00:07	2.425	73.851			
00:00:08	1.493	73.851			
00:00:08	0.888	73.851			
00:00:08	-0.115	73.851			
00:00:08	-0.740	73.851			
00:00:08	-1.009	73.851			
00:00:08	-1.568	73.851			
00:00:08	-1.501	73.851			
00:00:08	-1.626	73.851			
00:00:08	-1.678	73.851			
00:00:08	-1.180	73.851			
00:00:08	-1.249	73.851			
00:00:08	-0.829	73.851			
00:00:08	-0.700	73.851			
00:00:08	-0.660	73.851			
00:00:08	-0.242	73.851			
00:00:08	-0.418	73.851			
00:00:08	-0.276	73.851			
00:00:08	-0.070	73.851			
00:00:08	-0.202	73.851			
00:00:08	0.137	73.851			
00:00:08	-0.094	73.851			
00:00:08	-0.143	73.851			
00:00:08	-0.098	73.851			
00:00:08	-0.459	73.851			
00:00:08	-0.309	73.851			
00:00:08	-0.450	73.851			
00:00:08	-0.591	73.851			
00:00:08	-0.519	73.851			
00:00:08	-0.957	73.851			
00:00:08	-1.026	73.851			
00:00:08	-1.188	73.851			
00:00:08	-1.529	73.851			
00:00:08	-1.475	73.851			
00:00:08	-1.879	73.851			
00:00:08	-1.736	73.851			
00:00:08	-1.803	73.851			
00:00:08	-1.887	73.851			
00:00:08	-1.587	73.851			
00:00:08	-1.930	73.851			
00:00:08	-1.817	73.851			
00:00:08	-1.806	73.851			
00:00:08	-2.157	73.851			
00:00:08	-1.701	73.851			
00:00:08	-1.908	73.851			
00:00:08	-2.060	73.851			
00:00:08	-1.918	73.851			
00:00:08	-2.105	73.851			
00:00:08	-1.772	73.851			
00:00:08	-1.684	73.851			
00:00:08	-1.651	73.851			
00:00:08	-1.171	73.851			
00:00:08	-1.279	73.851			
00:00:08	-0.964	73.851			
00:00:08	-0.824	73.851			
00:00:08	-0.870	73.851			
00:00:08	-0.494	73.851			
00:00:08	-0.476	73.851			
00:00:08	-0.183	73.851			
00:00:08	-0.205	73.851			
00:00:08	-0.574	73.851			
00:00:08	-0.307	73.851			
00:00:08	-0.626	73.851			
00:00:08	-0.616	73.851			
00:00:08	-0.644	73.851			
00:00:08	-1.109	73.851			
00:00:08	-1.141	73.851			
00:00:08	-1.434	73.851			
00:00:08	-1.405	73.851			
00:00:08	-0.827	73.851			
00:00:08	-0.567	73.851			
00:00:08	0.355	73.851			
00:00:08	1.176	73.851			
00:00:08	2.208	73.851			
00:00:08	3.945	73.851			
00:00:08	5.295	73.851			
00:00:08	7.080	73.851			
00:00:08	8.625	73.851			
00:00:08	9.812	73.851			
00:00:08	11.288	73.851			
00:00:08	12.059	73.851			
00:00:08	13.124	73.851			
00:00:08	13.953	73.851			
00:00:08	14.020	73.851			
00:00:08	14.300	73.851			
00:00:08	13.731	73.851			
00:00:08	13.251	73.851			
00:00:08	12.659	73.851			
00:00:08	11.710	73.851			
00:00:08	11.363	73.851			
00:00:08	10.558	73.851			
00:00:08	9.769	73.851			
00:00:08	9.243	73.851			
00:00:08	8.136	76.800			
00:00:08	7.691	76.800			
00:00:08	6.978	76.800			
00:00:08	6.066	76.800			
00:00:08	5.467	76.805			
00:00:08	4.332	76.805			
00:00:08	3.674	76.805			
00:00:08	2.880	76.805			
00:00:08	1.601	76.805			
00:00:08	1.127	76.805			
00:00:08	0.229	76.805			
00:00:08	-0.315	76.805			
00:00:08	-0.739	76.805			
00:00:08	-1.587	76.805			
00:00:08	-1.802	76.805			
00:00:08	-2.204	76.805			
00:00:08	-2.151	76.805			
00:00:08	-1.822	76.805			
00:00:08	-1.932	76.805			
00:00:08	-1.460	76.805			
00:00:08	-1.458	76.805			
00:00:08	-1.405	76.805			
00:00:08	-0.917	76.805			
00:00:08	-0.963	76.805			
00:00:08	-0.555	76.805			
00:00:08	-0.365	76.805			
00:00:08	-0.416	76.805			
00:00:08	-0.338	76.805			
00:00:08	-0.701	76.805			
00:00:08	-0.616	76.805			
00:00:08	-0.633	76.805			
00:00:08	-0.951	76.805			
00:00:08	-0.616	76.805			
00:00:08	-0.896	76.805			
00:00:08	-1.040	76.805			
00:00:08	-1.163	76.805			
00:00:09	-1.673	76.805			
00:00:09	-1.538	76.805			
00:00:09	-1.829	76.805			
00:00:09	-2.017	76.805			
00:00:09	-1.857	76.805			
00:00:09	-2.342	76.805			
00:00:09	-2.308	76.805			
00:00:09	-2.547	76.805			
00:00:09	-2.860	76.805			
00:00:09	-2.701	76.805			
00:00:09	-2.952	76.805			
00:00:09	-2.738	76.805			
00:00:09	-2.693	76.805			
00:00:09	-2.908	76.805			
00:00:09	-2.758	76.805			
00:00:09	-3.060	76.805			
00:00:09	-2.984	76.805			
00:00:09	-2.848	76.805			
00:00:09	-3.050	76.805			
00:00:09	-2.562	76.805			
00:00:09	-2.603	76.805			
00:00:09	-2.467	76.805			
00:00:09	-2.143	76.805			
00:00:09	-2.386	76.805			
00:00:09	-2.057	76.805			
00:00:09	-2.176	76.805			
00:00:09	-2.307	76.805			
00:00:09	-2.167	76.805			
00:00:09	-2.472	76.805			
00:00:09	-2.109	76.805			
00:00:09	-1.972	76.805			
00:00:09	-1.865	76.805			
00:00:09	-1.441	76.805			
00:00:09	-1.648	76.805			
00:00:09	-1.471	76.805			
00:00:09	-1.577	76.805			
00:00:09	-1.826	76.805			
00:00:09	-1.568	76.805			
00:00:09	-2.012	76.805			
00:00:09	-2.091	76.805			
00:00:09	-1.862	76.805			
00:00:09	-2.028	76.805			
00:00:09	-1.448	76.805			
00:00:09	-1.104	76.805			
00:00:09	-0.572	76.805			
00:00:09	0.703	76.805			
00:00:09	1.588	76.805			
00:00:09	3.262	76.805			
00:00:09	4.845	76.805			
00:00:09	6.530	76.805			
00:00:09	8.641	76.805			
00:00:09	10.050	76.805			
00:00:09	11.720	76.805			
00:00:09	13.012	76.805			
00:00:09	13.730	76.805			
00:00:09	14.597	76.805			
00:00:09	14.574	76.805			
00:00:09	14.963	76.805			
00:00:09	15.100	76.805			
00:00:09	14.523	76.805			
00:00:09	14.326	76.805			
00:00:09	13.606	76.805			
00:00:09	13.071	76.805			
00:00:09	12.565	76.805			
00:00:09	11.389	76.805			
00:00:09	10.890	76.805			
00:00:09	9.994	76.805			
00:00:09	9.125	76.805			
00:00:09	8.619	74.563			
00:00:09	7.608	74.563			
00:00:09	7.165	74.563			
00:00:09	6.464	74.563			
00:00:09	5.449	74.568			
00:00:09	4.856	74.568			
00:00:09	3.676	74.568			
00:00:09	2.934	74.568			
00:00:09	2.038	74.568			
00:00:09	0.988	74.568			
00:00:09	0.448	74.568			
00:00:09	-0.528	74.568			
00:00:09	-0.966	74.568			
00:00:09	-1.215	74.568			
00:00:09	-1.796	74.568			
00:00:09	-1.810	74.568			
00:00:09	-2.138	74.568			
00:00:09	-2.310	74.568			
00:00:09	-2.021	74.568			
00:00:09	-2.148	74.568			
00:00:09	-1.829	74.568			
00:00:09	-1.847	74.568			
00:00:09	-1.729	74.568			
00:00:09	-1.122	74.568			
00:00:09	-1.039	74.568			
00:00:09	-0.670	74.568			
00:00:09	-0.697	74.568			
00:00:09	-0.991	74.568			
00:00:09	-0.864	74.568			
00:00:09	-1.319	74.568			
00:00:09	-1.191	74.568			
00:00:09	-0.983	74.568			
00:00:09	-1.093	74.568			
00:00:09	-0.932	74.568			
00:00:09	-1.415	74.568			
00:00:09	-1.397	74.568			
00:00:09	-1.499	74.568			
00:00:09	-1.971	74.568			
00:00:09	-1.681	74.568			
00:00:09	-1.752	74.568			
00:00:09	-1.804	74.568			
00:00:09	-1.701	74.568			
00:00:09	-2.237	74.568			
00:00:09	-2.292	74.568			
00:00:09	-2.516	74.568			
00:00:09	-2.776	74.568			
00:00:09	-2.595	74.568			
00:00:09	-2.919	74.568			
00:00:09	-2.854	74.568			
00:00:09	-2.933	74.568			
00:00:09	-3.159	74.568			
00:00:09	-2.969	74.568			
00:00:09	-3.324	74.568			
00:00:09	-3.110	74.568			
00:00:09	-2.987	74.568			
00:00:09	-3.189	74.568			
00:00:09	-2.937	74.568			
00:00:09	-3.074	74.568			
00:00:09	-2.903	74.568			
00:00:09	-2.707	74.568			
00:00:10	-2.849	74.568			
00:00:10	-2.469	74.568			
00:00:10	-2.600	74.568			
00:00:10	-2.451	74.568			
00:00:10	-2.054	74.568			
00:00:10	-2.248	74.568			
00:00:10	-1.959	74.568			
00:00:10	-1.814	74.568			
00:00:10	-1.961	74.568			
00:00:10	-1.730	74.568			
00:00:10	-1.985	74.568			
00:00:10	-1.968	74.568			
00:00:10	-1.891	74.568			
00:00:10	-2.116	74.568			
00:00:10	-1.831	74.568			
00:00:10	-2.101	74.568			
00:00:10	-2.159	74.568			
00:00:10	-2.182	74.568			
00:00:10	-2.638	74.568			
00:00:10	-2.335	74.568			
00:00:10	-2.550	74.568			
00:00:10	-2.465	74.568			
00:00:10	-2.173	74.568			
00:00:10	-2.215	74.568			
00:00:10	-1.492	74.568			
00:00:10	-0.724	74.568			
00:00:10	0.388	74.568			
00:00:10	2.188	74.568			
00:00:10	3.454	74.568			
00:00:10	5.437	74.568			
00:00:10	7.415	74.568			
00:00:10	8.992	74.568			
00:00:10	10.883	74.568			
00:00:10	12.028	74.568			
00:00:10	13.332	74.568			
00:00:10	14.410	74.568			
00:00:10	14.848	74.568			
00:00:10	15.389	74.568			
00:00:10	15.228	74.568			
00:00:10	15.163	74.568			
00:00:10	15.062	74.568			
00:00:10	14.282	74.568			
00:00:10	13.868	74.568			
00:00:10	12.920	74.568			
00:00:10	12.097	74.568			
00:00:10	11.569	74.568			
00:00:10	10.512	74.568			
00:00:10	10.092	74.568			
00:00:10	9.255	70.459			
00:00:10	8.373	70.459			
00:00:10	8.015	70.459			
00:00:10	7.095	70.459			
00:00:10	6.462	70.464			
00:00:10	5.650	70.464			
00:00:10	4.559	70.464			
00:00:10	3.913	70.464			
00:00:10	2.674	70.464			
00:00:10	1.776	70.464			
00:00:10	1.236	70.464			
00:00:10	0.198	70.464			
00:00:10	-0.211	70.464			
00:00:10	-1.007	70.464			
00:00:10	-1.512	70.464			
00:00:10	-1.669	70.464			
00:00:10	-2.200	70.464			
00:00:10	-1.950	70.464			
00:00:10	-2.027	70.464			
00:00:10	-2.076	70.464			
00:00:10	-1.671	70.464			
00:00:10	-1.735	70.464			
00:00:10	-1.149	70.464			
00:00:10	-1.001	70.464			
00:00:10	-0.950	70.464			
00:00:10	-0.528	70.464			
00:00:10	-0.589	70.464			
00:00:10	-0.373	70.464			
00:00:10	-0.312	70.464			
00:00:10	-0.698	70.464			
00:00:10	-0.642	70.464			
00:00:10	-1.016	70.464			
00:00:10	-1.016	70.464			
00:00:10	-0.843	70.464			
00:00:10	-1.216	70.464			
00:00:10	-1.054	70.464			
00:00:10	-1.392	70.464			
00:00:10	-1.536	70.464			
00:00:10	-1.403	70.464			
00:00:10	-1.870	70.464			
00:00:10	-1.934	70.464			
00:00:10	-2.201	70.464			
00:00:10	-2.493	70.464			
00:00:10	-2.328	70.464			
00:00:10	-2.705	70.464			
00:00:10	-2.615	70.464			
00:00:10	-2.775	70.464			
00:00:10	-3.149	70.464			
00:00:10	-2.936	70.464			
00:00:10	-3.225	70.464			
00:00:10	-3.087	70.464			
00:00:10	-2.839	70.464			
00:00:10	-3.086	70.464			
00:00:10	-2.795	70.464			
00:00:10	-3.022	70.464			
00:00:10	-3.048	70.464			
00:00:10	-2.797	70.464			
00:00:10	-2.926	70.464			
00:00:10	-2.486	70.464			
00:00:10	-2.714	70.464			
00:00:10	-2.932	70.464			
00:00:10	-2.779	70.464			
00:00:10	-2.975	70.464			
00:00:10	-2.563	70.464			
00:00:10	-2.405	70.464			
00:00:10	-2.445	70.464			
00:00:10	-1.953	70.464			
00:00:10	-2.165	70.464			
00:00:10	-2.078	70.464			
00:00:10	-1.884	70.464			
00:00:10	-2.008	70.464			
00:00:10	-1.562	70.464			
00:00:10	-1.778	70.464			
00:00:10	-1.744	70.464			
00:00:10	-1.639	70.464			
00:00:10	-2.062	70.464			
00:00:10	-1.686	70.464			
00:00:10	-1.872	70.464			
00:00:10	-1.881	70.464			
00:00:10	-1.778	70.464			
00:00:11	-2.146	70.464			
00:00:11	-1.897	70.464			
00:00:11	-2.091	70.464			
00:00:11	-2.161	70.464			
00:00:11	-1.834	70.464			
00:00:11	-1.930	70.464			
00:00:11	-1.253	70.464			
00:00:11	-0.645	70.464			
00:00:11	-0.142	70.464			
00:00:11	1.284	70.464			
00:00:11	2.539	70.464			
00:00:11	4.307	70.464			
00:00:11	6.284	70.464			
00:00:11	7.965	70.464			
00:00:11	10.013	70.464			
00:00:11	11.385	70.464			
00:00:11	12.924	70.464			
00:00:11	14.408	70.464			
00:00:11	15.130	70.464			
00:00:11	16.083	70.464			
00:00:11	16.102	70.464			
00:00:11	16.030	70.464			
00:00:11	15.864	70.464			
00:00:11	15.030	70.464			
00:00:11	14.752	70.464			
00:00:11	14.069	70.464			
00:00:11	13.298	70.464			
00:00:11	12.782	70.464			
00:00:11	11.643	70.464			
00:00:11	10.876	70.464			
00:00:11	10.043	70.464			
00:00:11	8.952	70.464			
00:00:11	8.452	69.189			
00:00:11	7.543	69.189			
00:00:11	6.817	69.189			
00:00:11	6.030	69.189			
00:00:11	4.956	69.194			
00:00:11	4.471	69.194			
00:00:11	3.418	69.194			
00:00:11	2.714	69.194			
00:00:11	2.096	69.194			
00:00:11	0.912	69.194			
00:00:11	0.416	69.194			
00:00:11	-0.441	69.194			
00:00:11	-1.184	69.194			
00:00:11	-1.324	69.194			
00:00:11	-1.850	69.194			
00:00:11	-1.717	69.194			
00:00:11	-1.793	69.194			
00:00:11	-1.920	69.194			
00:00:11	-1.590	69.194			
00:00:11	-1.771	69.194			
00:00:11	-1.486	69.194			
00:00:11	-1.221	69.194			
00:00:11	-1.204	69.194			
00:00:11	-0.893	69.194			
00:00:11	-1.113	69.194			
00:00:11	-0.916	69.194			
00:00:11	-0.634	69.194			
00:00:11	-0.767	69.194			
00:00:11	-0.416	69.194			
00:00:11	-0.692	69.194			
00:00:11	-0.904	69.194			
00:00:11	-0.851	69.194			
00:00:11	-1.210	69.194			
00:00:11	-1.199	69.194			
00:00:11	-1.386	69.194			
00:00:11	-1.818	69.194			
00:00:11	-1.745	69.194			
00:00:11	-2.293	69.194			
00:00:11	-2.266	69.194			
00:00:11	-2.374	69.194			
00:00:11	-2.629	69.194			
00:00:11	-2.362	69.194			
00:00:11	-2.723	69.194			
00:00:11	-2.730	69.194			
00:00:11	-2.763	69.194			
00:00:11	-3.078	69.194			
00:00:11	-2.756	69.194			
00:00:11	-2.847	69.194			
00:00:11	-2.820	69.194			
00:00:11	-2.735	69.194			
00:00:11	-3.156	69.194			
00:00:11	-3.040	69.194			
00:00:11	-3.124	69.194			
00:00:11	-3.037	69.194			
00:00:11	-2.690	69.194			
00:00:11	-2.779	69.194			
00:00:11	-2.662	69.194			
00:00:11	-2.692	69.194			
00:00:11	-2.914	69.194			
00:00:11	-2.401	69.194			
00:00:11	-2.433	69.194			
00:00:11	-2.255	69.194			
00:00:11	-2.191	69.194			
00:00:11	-2.295	69.194			
00:00:11	-1.967	69.194			
00:00:11	-2.294	69.194			
00:00:11	-2.028	69.194			
00:00:11	-1.745	69.194			
00:00:11	-1.936	69.194			
00:00:11	-1.521	69.194			
00:00:11	-1.621	69.194			
00:00:11	-1.657	69.194			
00:00:11	-1.542	69.194			
00:00:11	-1.763	69.194			
00:00:11	-1.361	69.194			
00:00:11	-1.255	69.194			
00:00:11	-1.254	69.194			
00:00:11	-1.119	69.194			
00:00:11	-1.444	69.194			
00:00:11	-1.261	69.194			
00:00:11	-1.363	69.194			
00:00:11	-1.486	69.194			
00:00:11	-1.218	69.194			
00:00:11	-1.581	69.194			
00:00:11	-1.452	69.194			
00:00:11	-1.246	69.194			
00:00:11	-1.230	69.194			
00:00:11	-0.371	69.194			
00:00:11	0.203	69.194			
00:00:11	1.332	69.194			
00:00:11	2.980	69.194			
00:00:11	4.411	69.194			
00:00:11	6.541	69.194			
00:00:11	8.256	69.194			
00:00:11	10.046	69.194			
00:00:11	11.968	69.194			
00:00:12	13.063	69.194			
00:00:12	14.586	69.194			
00:00:12	15.365	69.194			
00:00:12	15.614	69.194			
00:00:12	16.007	69.194			
00:00:12	15.746	69.194			
00:00:12	15.619	69.194			
00:00:12	15.117	69.194			
00:00:12	14.227	69.194			
00:00:12	13.872	69.194			
00:00:12	12.884	69.194			
00:00:12	12.269	69.194			
00:00:12	11.467	69.189			
00:00:12	10.150	69.189			
00:00:12	9.576	69.189			
00:00:12	8.516	69.189			
00:00:12	7.637	69.194			
00:00:12	7.056	69.194			
00:00:12	5.989	69.194			
00:00:12	5.466	69.194			
00:00:12	4.499	69.194			
00:00:12	3.511	69.194			
00:00:12	2.822	69.194			
00:00:12	1.723	69.194			
00:00:12	1.214	69.194			
00:00:12	0.352	69.194			
00:00:12	-0.404	69.194			
00:00:12	-0.754	69.194			
00:00:12	-1.594	69.194			
00:00:12	-1.779	69.194			
00:00:12	-1.832	69.194			
00:00:12	-1.937	69.194			
00:00:12	-1.490	69.194			
00:00:12	-1.667	69.194			
00:00:12	-1.472	69.194			
00:00:12	-1.139	69.194			
00:00:12	-1.238	69.194			
00:00:12	-0.713	69.194			
00:00:12	-0.728	69.194			
00:00:12	-0.693	69.194			
00:00:12	-0.563	69.194			
00:00:12	-0.913	69.194			
00:00:12	-0.623	69.194			
00:00:12	-0.741	69.194			
00:00:12	-0.828	69.194			
00:00:12	-0.575	69.194			
00:00:12	-1.008	69.194			
00:00:12	-0.894	69.194			
00:00:12	-1.036	69.194			
00:00:12	-1.293	69.194			
00:00:12	-1.143	69.194			
00:00:12	-1.529	69.194			
00:00:12	-1.417	69.194			
00:00:12	-1.547	69.194			
00:00:12	-1.977	69.194			
00:00:12	-1.900	69.194			
00:00:12	-2.336	69.194			
00:00:12	-2.415	69.194			
00:00:12	-2.333	69.194			
00:00:12	-2.538	69.194			
00:00:12	-2.325	69.194			
00:00:12	-2.484	69.194			
00:00:12	-2.678	69.194			
00:00:12	-2.430	69.194			
00:00:12	-2.828	69.194			
00:00:12	-2.545	69.194			
00:00:12	-2.644	69.194			
00:00:12	-2.796	69.194			
00:00:12	-2.706	69.194			
00:00:12	-3.179	69.194			
00:00:12	-2.995	69.194			
00:00:12	-2.820	69.194			
00:00:12	-2.843	69.194			
00:00:12	-2.336	69.194			
00:00:12	-2.476	69.194			
00:00:12	-2.519	69.194			
00:00:12	-2.301	69.194			
00:00:12	-2.640	69.194			
00:00:12	-2.260	69.194			
00:00:12	-2.282	69.194			
00:00:12	-2.172	69.194			
00:00:12	-1.977	69.194			
00:00:12	-2.222	69.194			
00:00:12	-1.856	69.194			
00:00:12	-1.886	69.194			
00:00:12	-1.881	69.194			
00:00:12	-1.655	69.194			
00:00:12	-1.839	69.194			
00:00:12	-1.501	69.194			
00:00:12	-1.455	69.194			
00:00:12	-1.736	69.194			
00:00:12	-1.680	69.194			
00:00:12	-2.046	69.194			
00:00:12	-1.889	69.194			
00:00:12	-1.821	69.194			
00:00:12	-2.177	69.194			
00:00:12	-2.068	69.194			
00:00:12	-2.495	69.194			
00:00:12	-2.276	69.194			
00:00:12	-2.030	69.194			
00:00:12	-2.291	69.194			
00:00:12	-1.812	69.194			
00:00:12	-1.678	69.194			
00:00:12	-1.183	69.194			
00:00:12	-0.300	69.194			
00:00:12	0.476	69.194			
00:00:12	2.030	69.194			
00:00:12	3.663	69.194			
00:00:12	5.406	69.194			
00:00:12	7.381	69.194			
00:00:12	8.883	69.194			
00:00:12	10.851	69.194			
00:00:12	12.424	69.194			
00:00:12	13.572	69.194			
00:00:12	14.842	69.194			
00:00:12	15.262	69.194			
00:00:12	15.785	69.194			
00:00:12	16.090	69.194			
00:00:12	15.888	69.194			
00:00:12	15.940	69.194			
00:00:12	15.117	69.194			
00:00:12	14.508	69.194			
00:00:12	13.746	69.194			
00:00:12	12.511	69.194			
00:00:12	11.881	69.194			
00:00:12	10.793	69.194			
00:00:12	9.909	69.194			
00:00:12	9.398	69.194			
00:00:13	8.370	67.965			
00:00:13	7.724	67.965			
00:00:13	6.822	67.965			
00:00:13	5.924	67.965			
00:00:13	5.349	67.970			
00:00:13	4.138	67.970			
00:00:13	3.487	67.970			
00:00:13	2.727	67.970			
00:00:13	1.705	67.970			
00:00:13	1.147	67.970			
00:00:13	0.065	67.970			
00:00:13	-0.458	67.970			
00:00:13	-0.735	67.970			
00:00:13	-1.469	67.970			
00:00:13	-1.537	67.970			
00:00:13	-1.845	67.970			
00:00:13	-1.858	67.970			
00:00:13	-1.420	67.970			
00:00:13	-1.557	67.970			
00:00:13	-1.043	67.970			
00:00:13	-0.997	67.970			
00:00:13	-0.929	67.970			
00:00:13	-0.409	67.970			
00:00:13	-0.465	67.970			
00:00:13	-0.045	67.970			
00:00:13	-0.087	67.970			
00:00:13	-0.314	67.970			
00:00:13	-0.054	67.970			
00:00:13	-0.420	67.970			
00:00:13	-0.410	67.970			
00:00:13	-0.596	67.970			
00:00:13	-0.973	67.970			
00:00:13	-0.845	67.970			
00:00:13	-1.181	67.970			
00:00:13	-1.160	67.970			
00:00:13	-1.083	67.970			
00:00:13	-1.637	67.970			
00:00:13	-1.691	67.970			
00:00:13	-2.182	67.970			
00:00:13	-2.518	67.970			
00:00:13	-2.488	67.970			
00:00:13	-2.901	67.970			
00:00:13	-2.816	67.970			
00:00:13	-3.151	67.970			
00:00:13	-3.261	67.970			
00:00:13	-2.968	67.970			
00:00:13	-3.276	67.970			
00:00:13	-2.946	67.970			
00:00:13	-2.825	67.970			
00:00:13	-2.816	67.970			
00:00:13	-2.438	67.970			
00:00:13	-2.812	67.970			
00:00:13	-2.639	67.970			
00:00:13	-2.515	67.970			
00:00:13	-2.782	67.970			
00:00:13	-2.477	67.970			
00:00:13	-2.661	67.970			
00:00:13	-2.569	67.970			
00:00:13	-2.515	67.970			
00:00:13	-2.673	67.970			
00:00:13	-2.298	67.970			
00:00:13	-2.377	67.970			
00:00:13	-2.382	67.970			
00:00:13	-2.130	67.970			
00:00:13	-2.334	67.970			
00:00:13	-1.791	67.970			
00:00:13	-1.835	67.970			
00:00:13	-1.898	67.970			
00:00:13	-1.418	67.970			
00:00:13	-1.602	67.970			
00:00:13	-1.269	67.970			
00:00:13	-1.135	67.970			
00:00:13	-1.277	67.970			
00:00:13	-0.860	67.970			
00:00:13	-1.231	67.970			
00:00:13	-1.187	67.970			
00:00:13	-1.145	67.970			
00:00:13	-1.522	67.970			
00:00:13	-1.295	67.970			
00:00:13	-1.672	67.970			
00:00:13	-1.841	67.970			
00:00:13	-1.842	67.970			
00:00:13	-2.331	67.970			
00:00:13	-1.946	67.970			
00:00:13	-1.973	67.970			
00:00:13	-1.788	67.970			
00:00:13	-1.311	67.970			
00:00:13	-0.995	67.970			
00:00:13	0.081	67.970			
00:00:13	1.051	67.970			
00:00:13	2.253	67.970			
00:00:13	4.188	67.970			
00:00:13	5.700	67.970			
00:00:13	7.738	67.970			
00:00:13	9.590	67.970			
00:00:13	11.033	67.970			
00:00:13	12.765	67.970			
00:00:13	13.700	67.970			
00:00:13	14.750	67.970			
00:00:13	15.644	67.970			
00:00:13	15.659	67.970			
00:00:13	15.855	67.970			
00:00:13	15.189	67.970			
00:00:13	14.826	67.970			
00:00:13	14.502	67.970			
00:00:13	13.548	67.970			
00:00:13	13.170	67.970			
00:00:13	12.346	67.970			
00:00:13	11.320	67.970			
00:00:13	10.624	67.970			
00:00:13	9.409	67.970			
00:00:13	8.744	67.970			
00:00:13	7.855	68.571			
00:00:13	6.928	68.571			
00:00:13	6.279	68.571			
00:00:13	5.133	68.571			
00:00:13	4.355	68.576			
00:00:13	3.699	68.576			
00:00:13	2.660	68.576			
00:00:13	2.053	68.576			
00:00:13	0.972	68.576			
00:00:13	0.189	68.576			
00:00:13	-0.402	68.576			
00:00:13	-1.251	68.576			
00:00:13	-1.508	68.576			
00:00:13	-1.850	68.576			
00:00:13	-1.810	68.576			
00:00:13	-1.599	68.576			
00:00:14	-1.886	68.576			
00:00:14	-1.434	68.576			
00:00:14	-1.314	68.576			
00:00:14	-1.063	68.576			
00:00:14	-0.388	68.576			
00:00:14	-0.382	68.576			
00:00:14	-0.025	68.576			
00:00:14	-0.010	68.576			
00:00:14	-0.113	68.576			
00:00:14	0.355	68.576			
00:00:14	0.136	68.576			
00:00:14	0.215	68.576			
00:00:14	0.177	68.576			
00:00:14	-0.035	68.576			
00:00:14	0.074	68.576			
00:00:14	-0.214	68.576			
00:00:14	-0.246	68.576			
00:00:14	-0.434	68.576			
00:00:14	-0.848	68.576			
00:00:14	-0.659	68.576			
00:00:14	-0.993	68.576			
00:00:14	-1.166	68.576			
00:00:14	-0.944	68.576			
00:00:14	-1.526	68.576			
00:00:14	-1.602	68.576			
00:00:14	-1.750	68.576			
00:00:14	-1.979	68.576			
00:00:14	-1.671	68.576			
00:00:14	-2.133	68.576			
00:00:14	-2.211	68.576			
00:00:14	-2.468	68.576			
00:00:14	-2.731	68.576			
00:00:14	-2.315	68.576			
00:00:14	-2.471	68.576			
00:00:14	-2.457	68.576			
00:00:14	-2.455	68.576			
00:00:14	-2.784	68.576			
00:00:14	-2.316	68.576			
00:00:14	-2.382	68.576			
00:00:14	-2.367	68.576			
00:00:14	-2.161	68.576			
00:00:14	-2.367	68.576			
00:00:14	-2.114	68.576			
00:00:14	-2.231	68.576			
00:00:14	-2.422	68.576			
00:00:14	-2.170	68.576			
00:00:14	-2.372	68.576			
00:00:14	-1.904	68.576			
00:00:14	-1.607	68.576			
00:00:14	-1.745	68.576			
00:00:14	-1.447	68.576			
00:00:14	-1.725	68.576			
00:00:14	-1.555	68.576			
00:00:14	-1.405	68.576			
00:00:14	-1.566	68.576			
00:00:14	-1.150	68.576			
00:00:14	-1.288	68.576			
00:00:14	-1.209	68.576			
00:00:14	-1.174	68.576			
00:00:14	-1.449	68.576			
00:00:14	-1.260	68.576			
00:00:14	-1.588	68.576			
00:00:14	-1.680	68.576			
00:00:14	-1.451	68.576			
00:00:14	-1.619	68.576			
00:00:14	-1.289	68.576			
00:00:14	-1.126	68.576			
00:00:14	-0.779	68.576			
00:00:14	0.176	68.576			
00:00:14	0.806	68.576			
00:00:14	2.370	68.576			
00:00:14	3.866	68.576			
00:00:14	5.418	68.576			
00:00:14	7.614	68.576			
00:00:14	9.182	68.576			
00:00:14	11.016	68.576			
00:00:14	12.538	68.576			
00:00:14	13.556	68.576			
00:00:14	14.869	68.576			
00:00:14	15.413	68.576			
00:00:14	15.659	68.576			
00:00:14	15.779	68.576			
00:00:14	15.281	68.576			
00:00:14	15.234	68.576			
00:00:14	14.606	68.576			
00:00:14	14.014	68.576			
00:00:14	13.458	68.576			
00:00:14	12.221	68.576			
00:00:14	11.625	68.576			
00:00:14	10.611	68.576			
00:00:14	9.881	68.576			
00:00:14	9.545	68.576			
00:00:14	8.372	71.111			
00:00:14	7.641	71.111			
00:00:14	6.752	71.111			
00:00:14	5.690	71.111			
00:00:14	5.156	71.116			
00:00:14	4.069	71.116			
00:00:14	3.322	71.116			
00:00:14	2.443	71.116			
00:00:14	1.150	71.116			
00:00:14	0.612	71.116			
00:00:14	-0.325	71.116			
00:00:14	-0.871	71.116			
00:00:14	-1.047	71.116			
00:00:14	-1.642	71.116			
00:00:14	-1.483	71.116			
00:00:14	-1.624	71.116			
00:00:14	-1.656	71.116			
00:00:14	-1.169	71.116			
00:00:14	-1.227	71.116			
00:00:14	-0.731	71.116			
00:00:14	-0.557	71.116			
00:00:14	-0.640	71.116			
00:00:14	-0.201	71.116			
00:00:14	-0.293	71.116			
00:00:14	-0.015	71.116			
00:00:14	0.118	71.116			
00:00:14	-0.084	71.116			
00:00:14	0.135	71.116			
00:00:14	-0.235	71.116			
00:00:14	-0.458	71.116			
00:00:14	-0.449	71.116			
00:00:14	-0.745	71.116			
00:00:14	-0.391	71.116			
00:00:14	-0.552	71.116			
00:00:14	-0.754	71.116			
00:00:14	-0.810	71.116			
00:00:15	-1.266	71.116			
00:00:15	-1.316	71.116			
00:00:15	-1.602	71.116			
00:00:15	-1.848	71.116			
00:00:15	-1.772	71.116			
00:00:15	-2.142	71.116			
00:00:15	-2.065	71.116			
00:00:15	-2.217	71.116			
00:00:15	-2.532	71.116			
00:00:15	-2.322	71.116			
00:00:15	-2.792	71.116			
00:00:15	-2.681	71.116			
00:00:15	-2.477	71.116			
00:00:15	-2.610	71.116			
00:00:15	-2.286	71.116			
00:00:15	-2.373	71.116			
00:00:15	-2.198	71.116			
00:00:15	-2.015	71.116			
00:00:15	-2.392	71.116			
00:00:15	-2.044	71.116			
00:00:15	-2.078	71.116			
00:00:15	-2.226	71.116			
00:00:15	-1.968	71.116			
00:00:15	-2.199	71.116			
00:00:15	-1.785	71.116			
00:00:15	-1.723	71.116			
00:00:15	-1.574	71.116			
00:00:15	-1.116	71.116			
00:00:15	-1.321	71.116			
00:00:15	-1.059	71.116			
00:00:15	-0.950	71.116			
00:00:15	-1.048	71.116			
00:00:15	-0.731	71.116			
00:00:15	-0.865	71.116			
00:00:15	-0.492	71.116			
00:00:15	-0.410	71.116			
00:00:15	-0.893	71.116			
00:00:15	-0.793	71.116			
00:00:15	-1.110	71.116			
00:00:15	-1.080	71.116			
00:00:15	-0.988	71.116			
00:00:15	-1.309	71.116			
00:00:15	-1.094	71.116			
00:00:15	-1.494	71.116			
00:00:15	-1.651	71.116			
00:00:15	-1.228	71.116			
00:00:15	-1.224	71.116			
00:00:15	-0.516	71.116			
00:00:15	0.072	71.116			
00:00:15	0.768	71.116			
00:00:15	2.187	71.116			
00:00:15	3.322	71.116			
00:00:15	5.178	71.116			
00:00:15	7.207	71.116			
00:00:15	8.937	71.116			
00:00:15	10.993	71.116			
00:00:15	12.117	71.116			
00:00:15	13.425	71.116			
00:00:15	14.471	71.116			
00:00:15	15.055	71.116			
00:00:15	15.936	71.116			
00:00:15	15.918	71.116			
00:00:15	15.892	71.116			
00:00:15	15.794	71.116			
00:00:15	14.996	71.116			
00:00:15	14.713	71.116			
00:00:15	13.947	71.116			
00:00:15	13.218	71.116			
00:00:15	12.745	71.116			
00:00:15	11.605	71.116			
00:00:15	10.887	71.116			
00:00:15	10.020	71.116			
00:00:15	9.093	70.459			
00:00:15	8.632	70.459			
00:00:15	7.498	70.459			
00:00:15	6.843	70.459			
00:00:15	6.105	70.464			
00:00:15	5.077	70.464			
00:00:15	4.612	70.464			
00:00:15	3.478	70.464			
00:00:15	2.709	70.464			
00:00:15	2.149	70.464			
00:00:15	1.265	70.464			
00:00:15	0.910	70.464			
00:00:15	0.281	70.464			
00:00:15	-0.196	70.464			
00:00:15	-0.262	70.464			
00:00:15	-0.787	70.464			
00:00:15	-0.613	70.464			
00:00:15	-0.679	70.464			
00:00:15	-0.610	70.464			
00:00:15	-0.096	70.464			
00:00:15	-0.017	70.464			
00:00:15	0.419	70.464			
00:00:15	0.608	70.464			
00:00:15	0.477	70.464			
00:00:15	0.827	70.464			
00:00:15	0.721	70.464			
00:00:15	0.955	70.464			
00:00:15	1.076	70.464			
00:00:15	0.775	70.464			
00:00:15	0.759	70.464			
00:00:15	0.156	70.464			
00:00:15	0.061	70.464			
00:00:15	0.159	70.464			
00:00:15	-0.324	70.464			
00:00:15	-0.362	70.464			
00:00:15	-0.856	70.464			
00:00:15	-1.186	70.464			
00:00:15	-1.214	70.464			
00:00:15	-1.718	70.464			
00:00:15	-1.651	70.464			
00:00:15	-1.843	70.464			
00:00:15	-2.101	70.464			
00:00:15	-1.997	70.464			
00:00:15	-2.334	70.464			
00:00:15	-2.255	70.464			
00:00:15	-2.190	70.464			
00:00:15	-2.217	70.464			
00:00:15	-1.744	70.464			
00:00:15	-1.940	70.464			
00:00:15	-1.774	70.464			
00:00:15	-1.701	70.464			
00:00:15	-1.904	70.464			
00:00:15	-1.723	70.464			
00:00:15	-1.815	70.464			
00:00:15	-1.888	70.464			
00:00:15	-1.769	70.464			
00:00:16	-2.151	76.800			
00:00:16	-1.783	76.800			
00:00:16	-1.723	76.800			
00:00:16	-1.625	76.800			
00:00:16	-1.335	76.805			
00:00:16	-1.545	76.805			
00:00:16	-1.163	76.805			
00:00:16	-1.090	76.805			
00:00:16	-1.162	76.805			
00:00:16	-0.636	76.805			
00:00:16	-0.751	76.805			
00:00:16	-0.503	76.805			
00:00:16	-0.213	76.805			
00:00:16	-0.382	76.805			
00:00:16	-0.120	76.805			
00:00:16	-0.467	76.805			
00:00:16	-0.427	76.805			
00:00:16	-0.291	76.805			
00:00:16	-0.542	76.805			
00:00:16	-0.455	76.805			
00:00:16	-0.772	76.805			
00:00:16	-0.975	76.805			
00:00:16	-1.029	76.805			
00:00:16	-1.340	76.805			
00:00:16	-1.023	76.805			
00:00:16	-0.944	76.805			
00:00:16	-0.828	76.805			
00:00:16	-0.015	76.805			
00:00:16	0.565	76.805			
00:00:16	1.947	76.805			
00:00:16	3.348	76.805			
00:00:16	4.766	76.805			
00:00:16	6.838	76.805			
00:00:16	8.394	76.805			
00:00:16	10.197	76.805			
00:00:16	11.888	76.805			
00:00:16	12.955	76.805			
00:00:16	14.354	76.805			
00:00:16	14.858	76.805			
00:00:16	15.460	76.805			
00:00:16	15.965	76.805			
00:00:16	15.689	76.805			
00:00:16	15.894	76.805			
00:00:16	15.418	76.805			
00:00:16	15.028	76.805			
00:00:16	14.765	76.805			
00:00:16	13.807	76.805			
00:00:16	13.142	76.805			
00:00:16	12.161	76.805			
00:00:16	11.206	76.805			
00:00:16	10.652	76.805			
00:00:16	9.619	76.805			
00:00:16	9.151	112.249			
00:00:16	8.531	112.249			
00:00:16	7.553	112.249			
00:00:16	7.027	112.249			
00:00:16	5.938	112.249			
00:00:16	5.158	112.249			
00:00:16	4.450	112.249			
00:00:16	3.445	112.249			
00:00:16	2.886	112.249			
00:00:16	1.829	112.249			
00:00:16	0.968	112.249			
00:00:16	0.536	112.249			
00:00:16	-0.360	112.249			
00:00:16	-0.348	112.249			
00:00:16	-0.661	112.249			
00:00:16	-0.849	112.249			
00:00:16	-0.642	112.249			
00:00:16	-0.952	112.249			
00:00:16	-0.520	112.249			
00:00:16	-0.257	112.249			
00:00:16	-0.075	112.249			
00:00:16	0.489	112.249			
00:00:16	0.443	112.249			
00:00:16	0.764	112.249			
00:00:16	0.998	112.249			
00:00:16	0.902	112.249			
00:00:16	1.288	112.249			
00:00:16	0.907	112.249			
00:00:16	0.773	112.249			
00:00:16	0.776	112.249			
00:00:16	0.345	112.249			
00:00:16	0.419	112.249			
00:00:16	0.035	112.249			
00:00:16	-0.126	112.249			
00:00:16	-0.042	112.249			
00:00:16	-0.433	112.249			
00:00:16	-0.192	112.249			
00:00:16	-0.378	112.249			
00:00:16	-0.546	112.249			
00:00:16	-0.547	112.249			
00:00:16	-1.026	112.249			
00:00:16	-1.013	112.249			
00:00:16	-1.157	112.249			
00:00:16	-1.426	112.249			
00:00:16	-1.220	112.249			
00:00:16	-1.553	112.249			
00:00:16	-1.431	112.249			
00:00:16	-1.445	112.249			
00:00:16	-1.792	112.249			
00:00:16	-1.418	112.249			
00:00:16	-1.667	112.249			
00:00:16	-1.694	112.249			
00:00:16	-1.547	112.249			
00:00:16	-1.876	112.249			
00:00:16	-1.685	112.249			
00:00:16	-1.951	112.249			
00:00:16	-1.885	112.249			
00:00:16	-1.551	112.249			
00:00:16	-1.658	112.249			
00:00:16	-1.384	112.249			
00:00:16	-1.469	112.249			
00:00:16	-1.466	112.249			
00:00:16	-1.086	112.249			
00:00:16	-1.146	112.249			
00:00:16	-0.667	112.249			
00:00:16	-0.491	112.249			
00:00:16	-0.616	112.249			
00:00:16	-0.349	112.249			
00:00:16	-0.567	112.249			
00:00:16	-0.497	112.249			
00:00:16	-0.408	112.249			
00:00:16	-0.487	112.249			
00:00:16	-0.272	112.249			
00:00:16	-0.703	112.249			
00:00:16	-0.906	112.249			
00:00:16	-0.924	112.249			
00:00:17	-1.376	112.249			
00:00:17	-1.113	112.249			
00:00:17	-1.291	112.249			
00:00:17	-1.345	112.249			
00:00:17	-1.131	112.249			
00:00:17	-1.419	112.249			
00:00:17	-0.931	112.249			
00:00:17	-0.401	112.249			
00:00:17	0.441	112.249			
00:00:17	1.877	112.249			
00:00:17	2.902	112.249			
00:00:17	4.628	112.249			
00:00:17	6.257	112.249			
00:00:17	7.737	112.249			
00:00:17	9.779	112.249			
00:00:17	11.128	112.249			
00:00:17	12.556	112.249			
00:00:17	13.873	112.249			
00:00:17	14.549	112.249			
00:00:17	15.609	112.249			
00:00:17	15.935	112.249			
00:00:17	16.164	112.249			
00:00:17	16.161	112.249			
00:00:17	15.486	112.249			
00:00:17	15.276	112.249			
00:00:17	14.585	112.249			
00:00:17	13.894	112.249			
00:00:17	13.363	112.249			
00:00:17	12.203	112.249			
00:00:17	11.445	112.249			
00:00:17	10.624	112.249			
00:00:17	9.833	112.249			
00:00:17	9.381	92.012			
00:00:17	8.320	92.012			
00:00:17	7.556	92.012			
00:00:17	6.697	92.012			
00:00:17	5.489	92.012			
00:00:17	4.954	92.012			
00:00:17	3.767	92.012			
00:00:17	2.978	92.012			
00:00:17	2.197	92.012			
00:00:17	1.091	92.012			
00:00:17	0.823	92.012			
00:00:17	0.131	92.012			
00:00:17	-0.301	92.012			
00:00:17	-0.260	92.012			
00:00:17	-0.664	92.012			
00:00:17	-0.447	92.012			
00:00:17	-0.454	92.012			
00:00:17	-0.428	92.012			
00:00:17	-0.013	92.012			
00:00:17	-0.026	92.012			
00:00:17	0.352	92.012			
00:00:17	0.608	92.012			
00:00:17	0.616	92.012			
00:00:17	1.046	92.012			
00:00:17	0.679	92.012			
00:00:17	0.816	92.012			
00:00:17	1.029	92.012			
00:00:17	0.909	92.012			
00:00:17	1.032	92.012			
00:00:17	0.668	92.012			
00:00:17	0.583	92.012			
00:00:17	0.427	92.012			
00:00:17	-0.156	92.012			
00:00:17	-0.148	92.012			
00:00:17	-0.359	92.012			
00:00:17	-0.455	92.012			
00:00:17	-0.306	92.012			
00:00:17	-0.803	92.012			
00:00:17	-0.763	92.012			
00:00:17	-0.939	92.012			
00:00:17	-1.126	92.012			
00:00:17	-0.845	92.012			
00:00:17	-1.287	92.012			
00:00:17	-1.245	92.012			
00:00:17	-1.278	92.012			
00:00:17	-1.411	92.012			
00:00:17	-0.992	92.012			
00:00:17	-1.156	92.012			
00:00:17	-1.068	92.012			
00:00:17	-1.099	92.012			
00:00:17	-1.314	92.012			
00:00:17	-0.960	92.012			
00:00:17	-1.221	92.012			
00:00:17	-1.261	92.012			
00:00:17	-1.132	92.012			
00:00:17	-1.403	92.012			
00:00:17	-1.091	92.012			
00:00:17	-1.149	92.012			
00:00:17	-0.989	92.012			
00:00:17	-0.708	92.012			
00:00:17	-1.188	92.012			
00:00:17	-1.094	92.012			
00:00:17	-1.039	92.012			
00:00:17	-1.177	92.012			
00:00:17	-0.727	92.012			
00:00:17	-0.711	92.012			
00:00:17	-0.386	92.012			
00:00:17	-0.303	92.012			
00:00:17	-0.755	92.012			
00:00:17	-0.493	92.012			
00:00:17	-0.736	92.012			
00:00:17	-0.658	92.012			
00:00:17	-0.516	92.012			
00:00:17	-0.718	92.012			
00:00:17	-0.498	92.012			
00:00:17	-0.886	92.012			
00:00:17	-0.964	92.012			
00:00:17	-0.704	92.012			
00:00:17	-1.002	92.012			
00:00:17	-0.834	92.012			
00:00:17	-0.811	92.012			
00:00:17	-0.594	92.012			
00:00:17	0.280	92.012			
00:00:17	1.102	92.012			
00:00:17	2.839	92.012			
00:00:17	4.450	92.012			
00:00:17	6.040	92.012			
00:00:17	8.088	92.012			
00:00:17	9.513	92.012			
00:00:17	11.263	92.012			
00:00:17	12.704	92.012			
00:00:17	13.654	92.012			
00:00:17	14.851	92.012			
00:00:17	15.198	92.012			
00:00:17	15.672	92.012			
00:00:17	15.966	92.012			
00:00:18	15.514	92.012			
00:00:18	15.405	92.012			
00:00:18	14.734	92.012			
00:00:18	14.185	92.012			
00:00:18	13.806	92.012			
00:00:18	12.741	92.012			
00:00:18	12.145	92.012			
00:00:18	11.304	92.012			
00:00:18	10.472	72.453			
00:00:18	9.962	72.453			
00:00:18	8.926	72.453			
00:00:18	8.358	72.453			
00:00:18	7.604	72.458			
00:00:18	6.590	72.458			
00:00:18	5.938	72.458			
00:00:18	4.723	72.458			
00:00:18	3.988	72.458			
00:00:18	3.340	72.458			
00:00:18	2.111	72.458			
00:00:18	1.710	72.458			
00:00:18	0.832	72.458			
00:00:18	0.320	72.458			
00:00:18	-0.043	72.458			
00:00:18	-0.594	72.458			
00:00:18	-0.379	72.458			
00:00:18	-0.680	72.458			
00:00:18	-0.648	72.458			
00:00:18	-0.242	72.458			
00:00:18	-0.366	72.458			
00:00:18	0.095	72.458			
00:00:18	0.265	72.458			
00:00:18	0.361	72.458			
00:00:18	0.865	72.458			
00:00:18	0.705	72.458			
00:00:18	1.110	72.458			
00:00:18	1.145	72.458			
00:00:18	0.876	72.458			
00:00:18	1.072	72.458			
00:00:18	0.679	72.458			
00:00:18	0.704	72.458			
00:00:18	0.653	72.458			
00:00:18	0.193	72.458			
00:00:18	0.324	72.458			
00:00:18	-0.123	72.458			
00:00:18	-0.406	72.458			
00:00:18	-0.469	72.458			
00:00:18	-0.822	72.458			
00:00:18	-0.638	72.458			
00:00:18	-0.930	72.458			
00:00:18	-1.162	72.458			
00:00:18	-1.162	72.458			
00:00:18	-1.564	72.458			
00:00:18	-1.338	72.458			
00:00:18	-1.217	72.458			
00:00:18	-1.339	72.458			
00:00:18	-1.101	72.458			
00:00:18	-1.320	72.458			
00:00:18	-1.114	72.458			
00:00:18	-1.046	72.458			
00:00:18	-1.275	72.458			
00:00:18	-0.993	72.458			
00:00:18	-1.260	72.458			
00:00:18	-1.180	72.458			
00:00:18	-0.984	72.458			
00:00:18	-1.334	72.458			
00:00:18	-0.991	72.458			
00:00:18	-1.133	72.458			
00:00:18	-1.102	72.458			
00:00:18	-0.853	72.458			
00:00:18	-0.876	72.458			
00:00:18	-0.481	72.458			
00:00:18	-0.472	72.458			
00:00:18	-0.462	72.458			
00:00:18	-0.080	72.458			
00:00:18	-0.305	72.458			
00:00:18	-0.043	72.458			
00:00:18	-0.004	72.458			
00:00:18	-0.288	72.458			
00:00:18	-0.133	72.458			
00:00:18	-0.462	72.458			
00:00:18	-0.301	72.458			
00:00:18	-0.283	72.458			
00:00:18	-0.651	72.458			
00:00:18	-0.542	72.458			
00:00:18	-0.696	72.458			
00:00:18	-0.659	72.458			
00:00:18	-0.575	72.458			
00:00:18	-0.869	72.458			
00:00:18	-0.545	72.458			
00:00:18	-0.563	72.458			
00:00:18	-0.387	72.458			
00:00:18	0.226	72.458			
00:00:18	0.493	72.458			
00:00:18	1.677	72.458			
00:00:18	2.911	72.458			
00:00:18	4.314	72.458			
00:00:18	6.344	72.458			
00:00:18	7.979	72.458			
00:00:18	9.999	72.458			
00:00:18	11.711	72.458			
00:00:18	12.824	72.458			
00:00:18	14.262	72.458			
00:00:18	15.032	72.458			
00:00:18	15.811	72.458			
00:00:18	16.281	72.458			
00:00:18	16.090	72.458			
00:00:18	16.209	72.458			
00:00:18	15.704	72.458			
00:00:18	15.372	72.458			
00:00:18	14.990	72.458			
00:00:18	14.039	72.458			
00:00:18	13.612	72.458			
00:00:18	12.761	72.458			
00:00:18	12.084	72.458			
00:00:18	11.622	72.458			
00:00:18	10.515	72.458			
00:00:18	9.865	72.453			
00:00:18	9.058	72.453			
00:00:18	8.413	72.453			
00:00:18	8.122	72.453			
00:00:18	7.079	72.458			
00:00:18	6.474	72.458			
00:00:18	5.466	72.458			
00:00:18	4.361	72.458			
00:00:18	3.679	72.458			
00:00:18	2.564	72.458			
00:00:18	2.025	72.458			
00:00:18	1.601	72.458			
00:00:19	0.928	72.458			
00:00:19	0.622	72.458			
00:00:19	0.055	72.458			
00:00:19	-0.162	72.458			
00:00:19	-0.032	72.458			
00:00:19	-0.376	72.458			
00:00:19	-0.025	72.458			
00:00:19	0.087	72.458			
00:00:19	0.111	72.458			
00:00:19	0.469	72.458			
00:00:19	0.258	72.458			
00:00:19	0.658	72.458			
00:00:19	0.725	72.458			
00:00:19	0.632	72.458			
00:00:19	0.880	72.458			
00:00:19	0.488	72.458			
00:00:19	0.630	72.458			
00:00:19	0.694	72.458			
00:00:19	0.393	72.458			
00:00:19	0.545	72.458			
00:00:19	-0.026	72.458			
00:00:19	-0.236	72.458			
00:00:19	-0.294	72.458			
00:00:19	-0.721	72.458			
00:00:19	-0.505	72.458			
00:00:19	-0.753	72.458			
00:00:19	-0.739	72.458			
00:00:19	-0.524	72.458			
00:00:19	-0.913	72.458			
00:00:19	-0.900	72.458			
00:00:19	-1.089	72.458			
00:00:19	-1.397	72.458			
00:00:19	-1.451	72.458			
00:00:19	-1.910	72.458			
00:00:19	-1.724	72.458			
00:00:19	-1.673	72.458			
00:00:19	-1.800	72.458			
00:00:19	-1.361	72.458			
00:00:19	-1.549	72.458			
00:00:19	-1.348	72.458			
00:00:19	-1.146	72.458			
00:00:19	-1.292	72.458			
00:00:19	-0.848	72.458			
00:00:19	-0.903	72.458			
00:00:19	-0.972	72.458			
00:00:19	-0.884	72.458			
00:00:19	-1.202	72.458			
00:00:19	-0.833	72.458			
00:00:19	-0.811	72.458			
00:00:19	-0.749	72.458			
00:00:19	-0.355	72.458			
00:00:19	-0.612	72.458			
00:00:19	-0.127	72.458			
00:00:19	0.001	72.458			
00:00:19	0.096	72.458			
00:00:19	0.544	72.458			
00:00:19	0.188	72.458			
00:00:19	0.157	72.458			
00:00:19	0.044	72.458			
00:00:19	-0.333	72.458			
00:00:19	-0.096	72.458			
00:00:19	-0.370	72.458			
00:00:19	-0.264	72.458			
00:00:19	-0.197	72.458			
00:00:19	-0.584	72.458			
00:00:19	-0.487	72.458			
00:00:19	-0.952	72.458			
00:00:19	-0.872	72.458			
00:00:19	-0.663	72.458			
00:00:19	-0.725	72.458			
00:00:19	-0.208	72.458			
00:00:19	0.222	72.458			
00:00:19	1.126	72.458			
00:00:19	2.584	72.458			
00:00:19	3.839	72.458			
00:00:19	5.656	72.458			
00:00:19	7.329	72.458			
00:00:19	9.017	72.458			
00:00:19	11.016	72.458			
00:00:19	12.222	72.458			
00:00:19	13.632	72.458			
00:00:19	14.513	72.458			
00:00:19	14.973	72.458			
00:00:19	15.743	72.458			
00:00:19	15.797	72.458			
00:00:19	15.884	72.458			
00:00:19	15.801	72.458			
00:00:19	15.205	72.458			
00:00:19	14.965	72.458			
00:00:19	14.146	72.458			
00:00:19	13.462	72.458			
00:00:19	12.996	72.458			
00:00:19	11.983	72.458			
00:00:19	11.538	72.458			
00:00:19	10.756	72.458			
00:00:19	10.071	72.458			
00:00:19	9.658	71.111			
00:00:19	8.753	71.111			
00:00:19	8.409	71.111			
00:00:19	7.662	71.111			
00:00:19	6.707	71.116			
00:00:19	6.010	71.116			
00:00:19	4.819	71.116			
00:00:19	4.073	71.116			
00:00:19	3.148	71.116			
00:00:19	2.021	71.116			
00:00:19	1.634	71.116			
00:00:19	0.643	71.116			
00:00:19	0.319	71.116			
00:00:19	0.068	71.116			
00:00:19	-0.453	71.116			
00:00:19	-0.138	71.116			
00:00:19	-0.207	71.116			
00:00:19	-0.028	71.116			
00:00:19	0.417	71.116			
00:00:19	0.273	71.116			
00:00:19	0.594	71.116			
00:00:19	0.627	71.116			
00:00:19	0.742	71.116			
00:00:19	1.132	71.116			
00:00:19	0.882	71.116			
00:00:19	1.127	71.116			
00:00:19	1.038	71.116			
00:00:19	0.829	71.116			
00:00:19	1.020	71.116			
00:00:19	0.489	71.116			
00:00:19	0.389	71.116			
00:00:19	0.195	71.116			
00:00:20	-0.201	71.116			
00:00:20	-0.146	71.116			
00:00:20	-0.501	71.116			
00:00:20	-0.727	71.116			
00:00:20	-0.818	71.116			
00:00:20	-1.133	71.116			
00:00:20	-0.959	71.116			
00:00:20	-1.103	71.116			
00:00:20	-1.148	71.116			
00:00:20	-1.027	71.116			
00:00:20	-1.369	71.116			
00:00:20	-1.227	71.116			
00:00:20	-1.410	71.116			
00:00:20	-1.432	71.116			
00:00:20	-1.004	71.116			
00:00:20	-1.208	71.116			
00:00:20	-1.096	71.116			
00:00:20	-1.320	71.116			
00:00:20	-1.762	71.116			
00:00:20	-1.418	71.116			
00:00:20	-1.552	71.116			
00:00:20	-1.380	71.116			
00:00:20	-1.250	71.116			
00:00:20	-1.493	71.116			
00:00:20	-1.149	71.116			
00:00:20	-1.252	71.116			
00:00:20	-1.065	71.116			
00:00:20	-0.743	71.116			
00:00:20	-0.821	71.116			
00:00:20	-0.456	71.116			
00:00:20	-0.509	71.116			
00:00:20	-0.439	71.116			
00:00:20	-0.132	71.116			
00:00:20	-0.364	71.116			
00:00:20	-0.168	71.116			
00:00:20	-0.149	71.116			
00:00:20	-0.214	71.116			
00:00:20	0.156	71.116			
00:00:20	-0.209	71.116			
00:00:20	-0.040	71.116			
00:00:20	-0.047	71.116			
00:00:20	-0.352	71.116			
00:00:20	-0.297	71.116			
00:00:20	-0.625	71.116			
00:00:20	-0.577	71.116			
00:00:20	-0.495	71.116			
00:00:20	-0.804	71.116			
00:00:20	-0.625	71.116			
00:00:20	-0.800	71.116			
00:00:20	-0.776	71.116			
00:00:20	-0.583	71.116			
00:00:20	-0.702	71.116			
00:00:20	0.255	71.116			
00:00:20	0.935	71.116			
00:00:20	1.891	71.116			
00:00:20	3.506	71.116			
00:00:20	4.689	71.116			
00:00:20	6.702	71.116			
00:00:20	8.745	71.116			
00:00:20	10.350	71.116			
00:00:20	12.230	71.116			
00:00:20	13.277	71.116			
00:00:20	14.505	71.116			
00:00:20	15.440	71.116			
00:00:20	15.802	71.116			
00:00:20	16.357	71.116			
00:00:20	15.991	71.116			
00:00:20	15.707	71.116			
00:00:20	15.374	71.116			
00:00:20	14.539	71.116			
00:00:20	14.248	71.116			
00:00:20	13.468	71.116			
00:00:20	12.656	71.116			
00:00:20	12.015	71.116			
00:00:20	10.973	71.116			
00:00:20	10.477	71.116			
00:00:20	9.683	71.111			
00:00:20	8.857	71.111			
00:00:20	8.374	71.111			
00:00:20	7.431	71.111			
00:00:20	7.044	71.116			
00:00:20	6.428	71.116			
00:00:20	5.551	71.116			
00:00:20	5.046	71.116			
00:00:20	3.849	71.116			
00:00:20	3.078	71.116			
00:00:20	2.415	71.116			
00:00:20	1.602	71.116			
00:00:20	1.376	71.116			
00:00:20	0.747	71.116			
00:00:20	0.425	71.116			
00:00:20	0.205	71.116			
00:00:20	-0.360	71.116			
00:00:20	-0.182	71.116			
00:00:20	-0.242	71.116			
00:00:20	-0.049	71.116			
00:00:20	0.388	71.116			
00:00:20	0.351	71.116			
00:00:20	0.780	71.116			
00:00:20	0.904	71.116			
00:00:20	0.860	71.116			
00:00:20	1.212	71.116			
00:00:20	1.011	71.116			
00:00:20	1.067	71.116			
00:00:20	0.989	71.116			
00:00:20	0.797	71.116			
00:00:20	1.013	71.116			
00:00:20	0.520	71.116			
00:00:20	0.322	71.116			
00:00:20	0.107	71.116			
00:00:20	-0.288	71.116			
00:00:20	0.062	71.116			
00:00:20	-0.199	71.116			
00:00:20	-0.358	71.116			
00:00:20	-0.296	71.116			
00:00:20	-0.939	71.116			
00:00:20	-1.051	71.116			
00:00:20	-1.319	71.116			
00:00:20	-1.438	71.116			
00:00:20	-1.301	71.116			
00:00:20	-1.771	71.116			
00:00:20	-1.748	71.116			
00:00:20	-1.889	71.116			
00:00:20	-2.086	71.116			
00:00:20	-1.602	71.116			
00:00:20	-1.680	71.116			
00:00:20	-1.248	71.116			
00:00:20	-1.215	71.116			
00:00:21	-1.412	71.116			
00:00:21	-1.018	71.116			
00:00:21	-1.413	71.116			
00:00:21	-1.393	71.116			
00:00:21	-1.322	71.116			
00:00:21	-1.714	71.116			
00:00:21	-1.481	71.116			
00:00:21	-1.593	71.116			
00:00:21	-1.270	71.116			
00:00:21	-0.887	71.116			
00:00:21	-1.139	71.116			
00:00:21	-0.912	71.116			
00:00:21	-1.046	71.116			
00:00:21	-0.943	71.116			
00:00:21	-0.453	71.116			
00:00:21	-0.435	71.116			
00:00:21	0.098	71.116			
00:00:21	0.244	71.116			
00:00:21	0.130	71.116			
00:00:21	0.315	71.116			
00:00:21	0.074	71.116			
00:00:21	0.165	71.116			
00:00:21	0.157	71.116			
00:00:21	-0.221	71.116			
00:00:21	-0.011	71.116			
00:00:21	-0.314	71.116			
00:00:21	-0.301	71.116			
00:00:21	-0.158	71.116			
00:00:21	-0.504	71.116			
00:00:21	-0.298	71.116			
00:00:21	-0.523	71.116			
00:00:21	-0.524	71.116			
00:00:21	-0.116	71.116			
00:00:21	-0.029	71.116			
00:00:21	0.832	71.116			
00:00:21	1.702	71.116			
00:00:21	2.730	71.116			
00:00:21	4.246	71.116			
00:00:21	5.498	71.116			
00:00:21	7.355	71.116			
00:00:21	9.112	71.116			
00:00:21	10.727	71.116			
00:00:21	12.532	71.116			
00:00:21	13.420	71.116			
00:00:21	14.482	71.116			
00:00:21	15.258	71.116			
00:00:21	15.363	71.116			
00:00:21	15.734	71.116			
00:00:21	15.427	71.116			
00:00:21	15.094	71.116			
00:00:21	14.890	71.116			
00:00:21	14.006	71.116			
00:00:21	13.600	71.116			
00:00:21	12.711	71.116			
00:00:21	11.862	71.116			
00:00:21	11.385	71.116			
00:00:21	10.442	69.818			
00:00:21	10.198	69.818			
00:00:21	9.591	69.818			
00:00:21	8.653	69.818			
00:00:21	7.989	69.823			
00:00:21	7.083	69.823			
00:00:21	6.500	69.823			
00:00:21	5.737	69.823			
00:00:21	4.824	69.823			
00:00:21	4.234	69.823			
00:00:21	2.995	69.823			
00:00:21	2.145	69.823			
00:00:21	1.449	69.823			
00:00:21	0.655	69.823			
00:00:21	0.581	69.823			
00:00:21	-0.066	69.823			
00:00:21	-0.206	69.823			
00:00:21	-0.066	69.823			
00:00:21	-0.306	69.823			
00:00:21	0.097	69.823			
00:00:21	0.230	69.823			
00:00:21	0.394	69.823			
00:00:21	0.745	69.823			
00:00:21	0.532	69.823			
00:00:21	0.834	69.823			
00:00:21	0.939	69.823			
00:00:21	0.911	69.823			
00:00:21	1.212	69.823			
00:00:21	0.902	69.823			
00:00:21	1.032	69.823			
00:00:21	0.960	69.823			
00:00:21	0.690	69.823			
00:00:21	0.762	69.823			
00:00:21	0.296	69.823			
00:00:21	0.054	69.823			
00:00:21	0.029	69.823			
00:00:21	-0.317	69.823			
00:00:21	-0.124	69.823			
00:00:21	-0.537	69.823			
00:00:21	-0.713	69.823			
00:00:21	-0.772	69.823			
00:00:21	-1.220	69.823			
00:00:21	-1.038	69.823			
00:00:21	-1.229	69.823			
00:00:21	-1.335	69.823			
00:00:21	-1.260	69.823			
00:00:21	-1.784	69.823			
00:00:21	-1.709	69.823			
00:00:21	-1.821	69.823			
00:00:21	-2.014	69.823			
00:00:21	-1.655	69.823			
00:00:21	-1.824	69.823			
00:00:21	-1.548	69.823			
00:00:21	-1.527	69.823			
00:00:21	-1.878	69.823			
00:00:21	-1.425	69.823			
00:00:21	-1.625	69.823			
00:00:21	-1.602	69.823			
00:00:21	-1.430	69.823			
00:00:21	-1.623	69.823			
00:00:21	-1.285	69.823			
00:00:21	-1.266	69.823			
00:00:21	-1.238	69.823			
00:00:21	-1.013	69.823			
00:00:21	-1.361	69.823			
00:00:21	-0.912	69.823			
00:00:21	-0.751	69.823			
00:00:21	-0.689	69.823			
00:00:21	-0.378	69.823			
00:00:21	-0.681	69.823			
00:00:21	-0.408	69.823			
00:00:21	-0.381	69.823			
00:00:22	-0.444	69.823			
00:00:22	-0.055	69.823			
00:00:22	-0.392	69.823			
00:00:22	-0.271	69.823			
00:00:22	-0.275	69.823			
00:00:22	-0.673	69.823			
00:00:22	-0.490	69.823			
00:00:22	-0.729	69.823			
00:00:22	-0.667	69.823			
00:00:22	-0.294	69.823			
00:00:22	-0.346	69.823			
00:00:22	0.052	69.823			
00:00:22	0.238	69.823			
00:00:22	0.856	69.823			
00:00:22	1.980	69.823			
00:00:22	2.766	69.823			
00:00:22	4.300	69.823			
00:00:22	5.717	69.823			
00:00:22	7.352	69.823			
00:00:22	9.412	69.823			
00:00:22	10.862	69.823			
00:00:22	12.547	69.823			
00:00:22	13.884	69.823			
00:00:22	14.703	69.823			
00:00:22	15.732	69.823			
00:00:22	15.888	69.823			
00:00:22	16.091	69.823			
00:00:22	16.161	69.823			
00:00:22	15.634	69.823			
00:00:22	15.427	69.823			
00:00:22	14.675	69.823			
00:00:22	13.979	69.823			
00:00:22	13.411	69.823			
00:00:22	12.259	69.823			
00:00:22	11.691	69.823			
00:00:22	10.747	69.823			
00:00:22	9.908	71.776			
00:00:22	9.507	71.776			
00:00:22	8.552	71.776			
00:00:22	8.171	71.776			
00:00:22	7.472	71.781			
00:00:22	6.550	71.781			
00:00:22	6.089	71.781			
00:00:22	5.064	71.781			
00:00:22	4.463	71.781			
00:00:22	3.910	71.781			
00:00:22	3.010	71.781			
00:00:22	2.322	71.781			
00:00:22	1.138	71.781			
00:00:22	0.610	71.781			
00:00:22	0.415	71.781			
00:00:22	-0.139	71.781			
00:00:22	-0.129	71.781			
00:00:22	-0.451	71.781			
00:00:22	-0.447	71.781			
00:00:22	-0.247	71.781			
00:00:22	-0.423	71.781			
00:00:22	-0.097	71.781			
00:00:22	0.015	71.781			
00:00:22	0.200	71.781			
00:00:22	0.637	71.781			
00:00:22	0.415	71.781			
00:00:22	0.712	71.781			
00:00:22	0.775	71.781			
00:00:22	0.847	71.781			
00:00:22	1.155	71.781			
00:00:22	0.842	71.781			
00:00:22	0.730	71.781			
00:00:22	0.584	71.781			
00:00:22	0.336	71.781			
00:00:22	0.439	71.781			
00:00:22	0.025	71.781			
00:00:22	-0.025	71.781			
00:00:22	-0.062	71.781			
00:00:22	-0.507	71.781			
00:00:22	-0.394	71.781			
00:00:22	-0.789	71.781			
00:00:22	-0.919	71.781			
00:00:22	-0.914	71.781			
00:00:22	-1.381	71.781			
00:00:22	-1.270	71.781			
00:00:22	-1.571	71.781			
00:00:22	-1.788	71.781			
00:00:22	-1.540	71.781			
00:00:22	-1.667	71.781			
00:00:22	-1.330	71.781			
00:00:22	-1.397	71.781			
00:00:22	-1.692	71.781			
00:00:22	-1.484	71.781			
00:00:22	-1.820	71.781			
00:00:22	-1.689	71.781			
00:00:22	-1.557	71.781			
00:00:22	-1.759	71.781			
00:00:22	-1.342	71.781			
00:00:22	-1.551	71.781			
00:00:22	-1.472	71.781			
00:00:22	-1.246	71.781			
00:00:22	-1.487	71.781			
00:00:22	-1.287	71.781			
00:00:22	-1.437	71.781			
00:00:22	-1.279	71.781			
00:00:22	-0.791	71.781			
00:00:22	-0.959	71.781			
00:00:22	-0.596	71.781			
00:00:22	-0.614	71.781			
00:00:22	-0.632	71.781			
00:00:22	-0.330	71.781			
00:00:22	-0.438	71.781			
00:00:22	-0.264	71.781			
00:00:22	-0.288	71.781			
00:00:22	-0.476	71.781			
00:00:22	-0.317	71.781			
00:00:22	-0.755	71.781			
00:00:22	-0.798	71.781			
00:00:22	-0.705	71.781			
00:00:22	-1.019	71.781			
00:00:22	-0.729	71.781			
00:00:22	-0.831	71.781			
00:00:22	-0.691	71.781			
00:00:22	-0.553	71.781			
00:00:22	-0.654	71.781			
00:00:22	-0.056	71.781			
00:00:22	0.112	71.781			
00:00:22	0.616	71.781			
00:00:22	1.883	71.781			
00:00:22	3.008	71.781			
00:00:22	4.681	71.781			
00:00:22	6.256	71.781			
00:00:23	7.799	71.781			
00:00:23	9.891	71.781			
00:00:23	11.442	71.781			
00:00:23	13.160	71.781			
00:00:23	14.402	71.781			
00:00:23	15.143	71.781			
00:00:23	16.234	71.781			
00:00:23	16.348	71.781			
00:00:23	16.489	71.781			
00:00:23	16.529	71.781			
00:00:23	15.908	71.781			
00:00:23	15.635	71.781			
00:00:23	14.780	71.781			
00:00:23	14.176	71.781			
00:00:23	13.666	71.781			
00:00:23	12.467	71.781			
00:00:23	11.831	69.818			
00:00:23	10.803	69.818			
00:00:23	9.894	69.818			
00:00:23	9.415	69.818			
00:00:23	8.446	69.823			
00:00:23	8.034	69.823			
00:00:23	7.314	69.823			
00:00:23	6.483	69.823			
00:00:23	6.000	69.823			
00:00:23	4.860	69.823			
00:00:23	4.207	69.823			
00:00:23	3.392	69.823			
00:00:23	2.220	69.823			
00:00:23	1.549	69.823			
00:00:23	0.538	69.823			
00:00:23	0.061	69.823			
00:00:23	-0.132	69.823			
00:00:23	-0.548	69.823			
00:00:23	-0.361	69.823			
00:00:23	-0.530	69.823			
00:00:23	-0.429	69.823			
00:00:23	-0.176	69.823			
00:00:23	-0.358	69.823			
00:00:23	0.063	69.823			
00:00:23	0.300	69.823			
00:00:23	0.302	69.823			
00:00:23	0.633	69.823			
00:00:23	0.590	69.823			
00:00:23	0.894	69.823			
00:00:23	0.958	69.823			
00:00:23	0.853	69.823			
00:00:23	0.968	69.823			
00:00:23	0.569	69.823			
00:00:23	0.465	69.823			
00:00:23	0.440	69.823			
00:00:23	-0.006	69.823			
00:00:23	0.142	69.823			
00:00:23	-0.168	69.823			
00:00:23	-0.208	69.823			
00:00:23	-0.074	69.823			
00:00:23	-0.407	69.823			
00:00:23	-0.182	69.823			
00:00:23	-0.455	69.823			
00:00:23	-0.681	69.823			
00:00:23	-0.618	69.823			
00:00:23	-1.045	69.823			
00:00:23	-0.960	69.823			
00:00:23	-1.008	69.823			
00:00:23	-1.109	69.823			
00:00:23	-0.841	69.823			
00:00:23	-1.201	69.823			
00:00:23	-1.065	69.823			
00:00:23	-1.105	69.823			
00:00:23	-1.382	69.823			
00:00:23	-1.058	69.823			
00:00:23	-1.293	69.823			
00:00:23	-1.284	69.823			
00:00:23	-1.267	69.823			
00:00:23	-1.587	69.823			
00:00:23	-1.181	69.823			
00:00:23	-1.227	69.823			
00:00:23	-1.128	69.823			
00:00:23	-0.881	69.823			
00:00:23	-1.082	69.823			
00:00:23	-0.843	69.823			
00:00:23	-0.884	69.823			
00:00:23	-0.822	69.823			
00:00:23	-0.373	69.823			
00:00:23	-0.458	69.823			
00:00:23	0.027	69.823			
00:00:23	0.028	69.823			
00:00:23	-0.080	69.823			
00:00:23	0.181	69.823			
00:00:23	-0.104	69.823			
00:00:23	-0.158	69.823			
00:00:23	-0.161	69.823			
00:00:23	-0.436	69.823			
00:00:23	-0.241	69.823			
00:00:23	-0.482	69.823			
00:00:23	-0.473	69.823			
00:00:23	-0.501	69.823			
00:00:23	-0.891	69.823			
00:00:23	-0.754	69.823			
00:00:23	-1.038	69.823			
00:00:23	-1.102	69.823			
00:00:23	-0.866	69.823			
00:00:23	-0.988	69.823			
00:00:23	-0.587	69.823			
00:00:23	-0.475	69.823			
00:00:23	-0.042	69.823			
00:00:23	0.989	69.823			
00:00:23	1.772	69.823			
00:00:23	3.173	69.823			
00:00:23	4.723	69.823			
00:00:23	6.258	69.823			
00:00:23	8.397	69.823			
00:00:23	9.941	69.823			
00:00:23	11.975	69.823			
00:00:23	13.556	69.823			
00:00:23	14.359	69.823			
00:00:23	15.528	69.823			
00:00:23	15.847	69.823			
00:00:23	16.284	69.823			
00:00:23	16.531	69.823			
00:00:23	16.114	69.823			
00:00:23	15.981	69.823			
00:00:23	15.194	69.823			
00:00:23	14.538	69.823			
00:00:23	14.093	69.823			
00:00:23	12.988	69.823			
00:00:23	12.430	69.823			
00:00:23	11.557	69.823			
00:00:24	10.656	69.189			
00:00:24	10.077	69.189			
00:00:24	9.077	69.189			
00:00:24	8.550	69.189			
00:00:24	7.826	69.194			
00:00:24	6.891	69.194			
00:00:24	6.305	69.194			
00:00:24	5.166	69.194			
00:00:24	4.469	69.194			
00:00:24	3.831	69.194			
00:00:24	2.866	69.194			
00:00:24	2.414	69.194			
00:00:24	1.513	69.194			
00:00:24	0.889	69.194			
00:00:24	0.495	69.194			
00:00:24	-0.247	69.194			
00:00:24	-0.140	69.194			
00:00:24	-0.297	69.194			
00:00:24	-0.489	69.194			
00:00:24	-0.362	69.194			
00:00:24	-0.594	69.194			
00:00:24	-0.105	69.194			
00:00:24	0.153	69.194			
00:00:24	0.209	69.194			
00:00:24	0.751	69.194			
00:00:24	0.604	69.194			
00:00:24	0.708	69.194			
00:00:24	0.793	69.194			
00:00:24	0.643	69.194			
00:00:24	1.149	69.194			
00:00:24	0.807	69.194			
00:00:24	0.781	69.194			
00:00:24	0.718	69.194			
00:00:24	0.114	69.194			
00:00:24	0.253	69.194			
00:00:24	-0.103	69.194			
00:00:24	-0.338	69.194			
00:00:24	-0.202	69.194			
00:00:24	-0.607	69.194			
00:00:24	-0.482	69.194			
00:00:24	-0.725	69.194			
00:00:24	-0.889	69.194			
00:00:24	-0.749	69.194			
00:00:24	-1.209	69.194			
00:00:24	-1.238	69.194			
00:00:24	-1.327	69.194			
00:00:24	-1.299	69.194			
00:00:24	-0.950	69.194			
00:00:24	-1.403	69.194			
00:00:24	-1.413	69.194			
00:00:24	-1.371	69.194			
00:00:24	-1.536	69.194			
00:00:24	-1.196	69.194			
00:00:24	-1.482	69.194			
00:00:24	-1.469	69.194			
00:00:24	-1.343	69.194			
00:00:24	-1.581	69.194			
00:00:24	-1.204	69.194			
00:00:24	-1.201	69.194			
00:00:24	-1.030	69.194			
00:00:24	-0.704	69.194			
00:00:24	-0.935	69.194			
00:00:24	-0.616	69.194			
00:00:24	-0.758	69.194			
00:00:24	-0.916	69.194			
00:00:24	-0.488	69.194			
00:00:24	-0.587	69.194			
00:00:24	-0.414	69.194			
00:00:24	-0.457	69.194			
00:00:24	-0.576	69.194			
00:00:24	-0.152	69.194			
00:00:24	-0.364	69.194			
00:00:24	-0.283	69.194			
00:00:24	-0.058	69.194			
00:00:24	-0.329	69.194			
00:00:24	-0.001	69.194			
00:00:24	-0.339	69.194			
00:00:24	-0.505	69.194			
00:00:24	-0.483	69.194			
00:00:24	-1.005	69.194			
00:00:24	-0.695	69.194			
00:00:24	-0.743	69.194			
00:00:24	-0.820	69.194			
00:00:24	-0.710	69.194			
00:00:24	-1.127	69.194			
00:00:24	-1.059	69.194			
00:00:24	-1.071	69.194			
00:00:24	-1.049	69.194			
00:00:24	-0.390	69.194			
00:00:24	-0.118	69.194			
00:00:24	1.070	69.194			
00:00:24	2.347	69.194			
00:00:24	3.623	69.194			
00:00:24	5.530	69.194			
00:00:24	7.046	69.194			
00:00:24	8.995	69.194			
00:00:24	10.917	69.194			
00:00:24	12.336	69.194			
00:00:24	14.063	69.194			
00:00:24	14.916	69.194			
00:00:24	15.389	69.194			
00:00:24	15.763	69.194			
00:00:24	15.717	69.194			
00:00:24	15.846	69.194			
00:00:24	15.434	69.194			
00:00:24	14.996	69.194			
00:00:24	14.690	69.194			
00:00:24	13.659	69.194			
00:00:24	13.115	69.194			
00:00:24	12.293	69.194			
00:00:24	11.310	69.194			
00:00:24	10.814	69.194			
00:00:24	9.774	68.571			
00:00:24	9.223	68.571			
00:00:24	8.640	68.571			
00:00:24	7.797	68.571			
00:00:24	7.545	68.576			
00:00:24	6.664	68.576			
00:00:24	5.936	68.576			
00:00:24	5.230	68.576			
00:00:24	3.987	68.576			
00:00:24	3.368	68.576			
00:00:24	2.312	68.576			
00:00:24	1.541	68.576			
00:00:24	1.109	68.576			
00:00:24	0.392	68.576			
00:00:24	0.320	68.576			
00:00:24	-0.072	68.576			
00:00:25	-0.331	68.576			
00:00:25	-0.129	68.576			
00:00:25	-0.405	68.576			
00:00:25	-0.016	68.576			
00:00:25	0.309	68.576			
00:00:25	0.264	68.576			
00:00:25	0.790	68.576			
00:00:25	0.640	68.576			
00:00:25	0.981	68.576			
00:00:25	1.249	68.576			
00:00:25	1.184	68.576			
00:00:25	1.643	68.576			
00:00:25	1.481	68.576			
00:00:25	1.496	68.576			
00:00:25	1.429	68.576			
00:00:25	0.884	68.576			
00:00:25	0.907	68.576			
00:00:25	0.425	68.576			
00:00:25	0.274	68.576			
00:00:25	0.469	68.576			
00:00:25	-0.011	68.576			
00:00:25	-0.013	68.576			
00:00:25	-0.255	68.576			
00:00:25	-0.477	68.576			
00:00:25	-0.267	68.576			
00:00:25	-0.617	68.576			
00:00:25	-0.626	68.576			
00:00:25	-0.768	68.576			
00:00:25	-0.885	68.576			
00:00:25	-0.792	68.576			
00:00:25	-1.246	68.576			
00:00:25	-1.290	68.576			
00:00:25	-1.268	68.576			
00:00:25	-1.548	68.576			
00:00:25	-1.323	68.576			
00:00:25	-1.487	68.576			
00:00:25	-1.474	68.576			
00:00:25	-1.272	68.576			
00:00:25	-1.563	68.576			
00:00:25	-1.364	68.576			
00:00:25	-1.337	68.576			
00:00:25	-1.228	68.576			
00:00:25	-0.884	68.576			
00:00:25	-1.078	68.576			
00:00:25	-0.789	68.576			
00:00:25	-0.764	68.576			
00:00:25	-0.821	68.576			
00:00:25	-0.387	68.576			
00:00:25	-0.477	68.576			
00:00:25	-0.134	68.576			
00:00:25	-0.057	68.576			
00:00:25	-0.308	68.576			
00:00:25	0.073	68.576			
00:00:25	-0.116	68.576			
00:00:25	-0.013	68.576			
00:00:25	0.335	68.576			
00:00:25	0.202	68.576			
00:00:25	0.556	68.576			
00:00:25	0.401	68.576			
00:00:25	0.307	68.576			
00:00:25	0.363	68.576			
00:00:25	-0.083	68.576			
00:00:25	0.013	68.576			
00:00:25	-0.285	68.576			
00:00:25	-0.360	68.576			
00:00:25	-0.025	68.576			
00:00:25	-0.256	68.576			
00:00:25	-0.063	68.576			
00:00:25	-0.119	68.576			
00:00:25	-0.062	68.576			
00:00:25	0.880	68.576			
00:00:25	1.543	68.576			
00:00:25	2.967	68.576			
00:00:25	4.480	68.576			
00:00:25	5.846	68.576			
00:00:25	7.822	68.576			
00:00:25	9.168	68.576			
00:00:25	10.892	68.576			
00:00:25	12.513	68.576			
00:00:25	13.340	68.576			
00:00:25	14.493	68.576			
00:00:25	14.890	68.576			
00:00:25	15.147	68.576			
00:00:25	15.321	68.576			
00:00:25	14.938	68.576			
00:00:25	14.762	68.576			
00:00:25	13.920	68.576			
00:00:25	13.125	68.576			
00:00:25	12.707	68.576			
00:00:25	11.719	68.576			
00:00:25	11.084	68.576			
00:00:25	10.255	68.576			
00:00:25	9.326	71.776			
00:00:25	8.901	71.776			
00:00:25	7.960	71.776			
00:00:25	7.532	71.776			
00:00:25	6.962	71.781			
00:00:25	6.007	71.781			
00:00:25	5.556	71.781			
00:00:25	4.661	71.781			
00:00:25	3.846	71.781			
00:00:25	3.192	71.781			
00:00:25	2.129	71.781			
00:00:25	1.520	71.781			
00:00:25	0.743	71.781			
00:00:25	-0.065	71.781			
00:00:25	-0.274	71.781			
00:00:25	-0.605	71.781			
00:00:25	-0.348	71.781			
00:00:25	-0.451	71.781			
00:00:25	-0.703	71.781			
00:00:25	-0.270	71.781			
00:00:25	-0.297	71.781			
00:00:25	0.133	71.781			
00:00:25	0.421	71.781			
00:00:25	0.572	71.781			
00:00:25	1.270	71.781			
00:00:25	1.265	71.781			
00:00:25	1.477	71.781			
00:00:25	1.579	71.781			
00:00:25	1.321	71.781			
00:00:25	1.539	71.781			
00:00:25	1.402	71.781			
00:00:25	1.239	71.781			
00:00:25	1.385	71.781			
00:00:25	0.972	71.781			
00:00:25	1.201	71.781			
00:00:25	1.004	71.781			
00:00:26	0.688	71.781			
00:00:26	0.794	71.781			
00:00:26	0.244	71.781			
00:00:26	0.418	71.781			
00:00:26	0.214	71.781			
00:00:26	-0.189	71.781			
00:00:26	-0.085	71.781			
00:00:26	-0.555	71.781			
00:00:26	-0.504	71.781			
00:00:26	-0.514	71.781			
00:00:26	-0.891	71.781			
00:00:26	-0.695	71.781			
00:00:26	-1.086	71.781			
00:00:26	-1.207	71.781			
00:00:26	-1.029	71.781			
00:00:26	-1.322	71.781			
00:00:26	-1.112	71.781			
00:00:26	-1.288	71.781			
00:00:26	-1.478	71.781			
00:00:26	-1.378	71.781			
00:00:26	-1.683	71.781			
00:00:26	-1.489	71.781			
00:00:26	-1.583	71.781			
00:00:26	-1.498	71.781			
00:00:26	-1.196	71.781			
00:00:26	-1.423	71.781			
00:00:26	-1.214	71.781			
00:00:26	-1.084	71.781			
00:00:26	-1.132	71.781			
00:00:26	-0.590	71.781			
00:00:26	-0.518	71.781			
00:00:26	-0.234	71.781			
00:00:26	-0.040	71.781			
00:00:26	-0.349	71.781			
00:00:26	0.003	71.781			
00:00:26	-0.179	71.781			
00:00:26	-0.144	71.781			
00:00:26	0.031	71.781			
00:00:26	-0.299	71.781			
00:00:26	-0.069	71.781			
00:00:26	-0.106	71.781			
00:00:26	-0.084	71.781			
00:00:26	0.080	71.781			
00:00:26	-0.360	71.781			
00:00:26	-0.306	71.781			
00:00:26	-0.434	71.781			
00:00:26	-0.532	71.781			
00:00:26	-0.103	71.781			
00:00:26	-0.022	71.781			
00:00:26	0.554	71.781			
00:00:26	1.210	71.781			
00:00:26	2.117	71.781			
00:00:26	3.804	71.781			
00:00:26	5.286	71.781			
00:00:26	7.253	71.781			
00:00:26	9.103	71.781			
00:00:26	10.308	71.781			
00:00:26	12.134	71.781			
00:00:26	13.247	71.781			
00:00:26	14.358	71.781			
00:00:26	15.399	71.781			
00:00:26	15.517	71.781			
00:00:26	15.983	71.781			
00:00:26	15.945	71.781			
00:00:26	15.627	71.781			
00:00:26	15.405	71.781			
00:00:26	14.478	71.781			
00:00:26	14.031	71.781			
00:00:26	13.229	71.781			
00:00:26	12.340	71.781			
00:00:26	11.806	71.781			
00:00:26	10.785	71.781			
00:00:26	10.166	71.111			
00:00:26	9.328	71.111			
00:00:26	8.284	71.111			
00:00:26	7.954	71.111			
00:00:26	7.109	71.116			
00:00:26	6.643	71.116			
00:00:26	6.105	71.116			
00:00:26	5.077	71.116			
00:00:26	4.572	71.116			
00:00:26	3.590	71.116			
00:00:26	2.850	71.116			
00:00:26	2.212	71.116			
00:00:26	1.211	71.116			
00:00:26	0.911	71.116			
00:00:26	0.251	71.116			
00:00:26	-0.178	71.116			
00:00:26	-0.099	71.116			
00:00:26	-0.395	71.116			
00:00:26	-0.180	71.116			
00:00:26	-0.050	71.116			
00:00:26	-0.005	71.116			
00:00:26	0.401	71.116			
00:00:26	0.234	71.116			
00:00:26	0.429	71.116			
00:00:26	0.620	71.116			
00:00:26	0.542	71.116			
00:00:26	1.126	71.116			
00:00:26	1.102	71.116			
00:00:26	1.144	71.116			
00:00:26	1.215	71.116			
00:00:26	0.907	71.116			
00:00:26	1.051	71.116			
00:00:26	0.859	71.116			
00:00:26	0.753	71.116			
00:00:26	0.842	71.116			
00:00:26	0.370	71.116			
00:00:26	0.333	71.116			
00:00:26	-0.006	71.116			
00:00:26	-0.329	71.116			
00:00:26	-0.162	71.116			
00:00:26	-0.532	71.116			
00:00:26	-0.566	71.116			
00:00:26	-0.645	71.116			
00:00:26	-0.969	71.116			
00:00:26	-0.700	71.116			
00:00:26	-1.090	71.116			
00:00:26	-1.096	71.116			
00:00:26	-1.088	71.116			
00:00:26	-1.509	71.116			
00:00:26	-1.162	71.116			
00:00:26	-1.314	71.116			
00:00:26	-1.287	71.116			
00:00:26	-1.066	71.116			
00:00:26	-1.119	71.116			
00:00:26	-0.713	71.116			
00:00:26	-0.776	71.116			
00:00:27	-0.699	71.116			
00:00:27	-0.416	71.116			
00:00:27	-0.654	71.116			
00:00:27	-0.406	71.116			
00:00:27	-0.427	71.116			
00:00:27	-0.533	71.116			
00:00:27	-0.266	71.116			
00:00:27	-0.562	71.116			
00:00:27	-0.283	71.116			
00:00:27	-0.130	71.116			
00:00:27	-0.274	71.116			
00:00:27	0.203	71.116			
00:00:27	0.100	71.116			
00:00:27	0.390	71.116			
00:00:27	0.577	71.116			
00:00:27	0.349	71.116			
00:00:27	0.603	71.116			
00:00:27	0.453	71.116			
00:00:27	0.318	71.116			
00:00:27	0.299	71.116			
00:00:27	0.002	71.116			
00:00:27	0.303	71.116			
00:00:27	0.206	71.116			
00:00:27	0.034	71.116			
00:00:27	-0.037	71.116			
00:00:27	-0.428	71.116			
00:00:27	-0.139	71.116			
00:00:27	0.128	71.116			
00:00:27	0.498	71.116			
00:00:27	1.335	71.116			
00:00:27	1.683	71.116			
00:00:27	2.942	71.116			
00:00:27	4.668	71.116			
00:00:27	6.256	71.116			
00:00:27	8.412	71.116			
00:00:27	9.745	71.116			
00:00:27	11.273	71.116			
00:00:27	12.836	71.116			
00:00:27	13.698	71.116			
00:00:27	14.666	71.116			
00:00:27	15.035	71.116			
00:00:27	15.147	71.116			
00:00:27	15.347	71.116			
00:00:27	14.802	71.116			
00:00:27	14.637	71.116			
00:00:27	13.992	71.116			
00:00:27	13.127	71.116			
00:00:27	12.545	71.116			
00:00:27	11.492	71.116			
00:00:27	10.988	71.116			
00:00:27	10.474	71.116			
00:00:27	9.537	71.116			
00:00:27	9.113	71.776			
00:00:27	8.115	71.776			
00:00:27	7.456	71.776			
00:00:27	6.904	71.776			
00:00:27	5.985	71.781			
00:00:27	5.692	71.781			
00:00:27	4.779	71.781			
00:00:27	4.096	71.781			
00:00:27	3.496	71.781			
00:00:27	2.346	71.781			
00:00:27	2.006	71.781			
00:00:27	1.358	71.781			
00:00:27	0.874	71.781			
00:00:27	0.611	71.781			
00:00:27	-0.046	71.781			
00:00:27	0.129	71.781			
00:00:27	0.162	71.781			
00:00:27	0.154	71.781			
00:00:27	0.445	71.781			
00:00:27	0.259	71.781			
00:00:27	0.643	71.781			
00:00:27	0.855	71.781			
00:00:27	0.872	71.781			
00:00:27	1.423	71.781			
00:00:27	1.309	71.781			
00:00:27	1.454	71.781			
00:00:27	1.531	71.781			
00:00:27	1.246	71.781			
00:00:27	1.508	71.781			
00:00:27	1.279	71.781			
00:00:27	1.175	71.781			
00:00:27	1.240	71.781			
00:00:27	0.799	71.781			
00:00:27	0.982	71.781			
00:00:27	0.742	71.781			
00:00:27	0.520	71.781			
00:00:27	0.609	71.781			
00:00:27	-0.012	71.781			
00:00:27	-0.185	71.781			
00:00:27	-0.531	71.781			
00:00:27	-0.847	71.781			
00:00:27	-0.669	71.781			
00:00:27	-1.079	71.781			
00:00:27	-1.050	71.781			
00:00:27	-1.014	71.781			
00:00:27	-1.352	71.781			
00:00:27	-1.144	71.781			
00:00:27	-1.511	71.781			
00:00:27	-1.518	71.781			
00:00:27	-1.301	71.781			
00:00:27	-1.449	71.781			
00:00:27	-1.017	71.781			
00:00:27	-1.066	71.781			
00:00:27	-1.066	71.781			
00:00:27	-0.844	71.781			
00:00:27	-1.022	71.781			
00:00:27	-0.846	71.781			
00:00:27	-0.888	71.781			
00:00:27	-1.017	71.781			
00:00:27	-0.719	71.781			
00:00:27	-0.829	71.781			
00:00:27	-0.477	71.781			
00:00:27	-0.408	71.781			
00:00:27	-0.493	71.781			
00:00:27	-0.070	71.781			
00:00:27	-0.174	71.781			
00:00:27	0.088	71.781			
00:00:27	0.260	71.781			
00:00:27	-0.068	71.781			
00:00:27	0.206	71.781			
00:00:27	-0.126	71.781			
00:00:27	-0.196	71.781			
00:00:27	-0.066	71.781			
00:00:27	-0.426	71.781			
00:00:27	-0.350	71.781			
00:00:27	-0.626	71.781			
00:00:28	-0.722	71.781			
00:00:28	-0.475	71.781			
00:00:28	-0.623	71.781			
00:00:28	0.014	71.781			
00:00:28	0.395	71.781			
00:00:28	0.920	71.781			
00:00:28	2.197	71.781			
00:00:28	3.032	71.781			
00:00:28	4.689	71.781			
00:00:28	6.370	71.781			
00:00:28	7.807	71.781			
00:00:28	9.714	71.781			
00:00:28	10.810	71.781			
00:00:28	12.138	71.781			
00:00:28	13.280	71.781			
00:00:28	13.720	71.781			
00:00:28	14.386	71.781			
00:00:28	14.385	71.781			
00:00:28	14.362	71.781			
00:00:28	14.465	71.781			
00:00:28	13.864	71.781			
00:00:28	13.680	71.781			
00:00:28	12.870	71.781			
00:00:28	12.054	71.781			
00:00:28	11.416	71.781			
00:00:28	10.236	71.781			
00:00:28	9.584	71.781			
00:00:28	8.783	71.781			
00:00:28	7.956	73.143			
00:00:28	7.650	73.143			
00:00:28	6.766	73.143			
00:00:28	6.273	73.143			
00:00:28	5.679	73.148			
00:00:28	4.609	73.148			
00:00:28	3.929	73.148			
00:00:28	2.753	73.148			
00:00:28	1.967	73.148			
00:00:28	1.316	73.148			
00:00:28	0.422	73.148			
00:00:28	0.134	73.148			
00:00:28	-0.577	73.148			
00:00:28	-0.841	73.148			
00:00:28	-0.752	73.148			
00:00:28	-1.022	73.148			
00:00:28	-0.775	73.148			
00:00:28	-0.769	73.148			
00:00:28	-0.644	73.148			
00:00:28	-0.070	73.148			
00:00:28	-0.073	73.148			
00:00:28	0.424	73.148			
00:00:28	0.590	73.148			
00:00:28	0.640	73.148			
00:00:28	1.157	73.148			
00:00:28	1.006	73.148			
00:00:28	1.031	73.148			
00:00:28	1.152	73.148			
00:00:28	0.827	73.148			
00:00:28	0.923	73.148			
00:00:28	0.612	73.148			
00:00:28	0.572	73.148			
00:00:28	0.551	73.148			
00:00:28	0.005	73.148			
00:00:28	0.028	73.148			
00:00:28	-0.298	73.148			
00:00:28	-0.494	73.148			
00:00:28	-0.380	73.148			
00:00:28	-0.812	73.148			
00:00:28	-0.720	73.148			
00:00:28	-0.914	73.148			
00:00:28	-1.236	73.148			
00:00:28	-1.100	73.148			
00:00:28	-1.432	73.148			
00:00:28	-1.329	73.148			
00:00:28	-1.408	73.148			
00:00:28	-1.729	73.148			
00:00:28	-1.320	73.148			
00:00:28	-1.474	73.148			
00:00:28	-1.283	73.148			
00:00:28	-1.050	73.148			
00:00:28	-1.254	73.148			
00:00:28	-0.826	73.148			
00:00:28	-0.950	73.148			
00:00:28	-0.945	73.148			
00:00:28	-0.660	73.148			
00:00:28	-0.939	73.148			
00:00:28	-0.569	73.148			
00:00:28	-0.462	73.148			
00:00:28	-0.525	73.148			
00:00:28	-0.171	73.148			
00:00:28	-0.486	73.148			
00:00:28	-0.396	73.148			
00:00:28	-0.602	73.148			
00:00:28	-0.702	73.148			
00:00:28	-0.271	73.148			
00:00:28	-0.440	73.148			
00:00:28	-0.151	73.148			
00:00:28	-0.073	73.148			
00:00:28	-0.413	73.148			
00:00:28	-0.234	73.148			
00:00:28	-0.614	73.148			
00:00:28	-0.609	73.148			
00:00:28	-0.394	73.148			
00:00:28	-0.637	73.148			
00:00:28	-0.203	73.148			
00:00:28	-0.150	73.148			
00:00:28	0.457	73.148			
00:00:28	1.772	73.148			
00:00:28	2.752	73.148			
00:00:28	4.401	73.148			
00:00:28	5.745	73.148			
00:00:28	7.137	73.148			
00:00:28	9.035	73.148			
00:00:28	10.096	73.148			
00:00:28	11.594	73.148			
00:00:28	12.436	73.148			
00:00:28	12.903	73.148			
00:00:28	13.600	73.148			
00:00:28	13.472	73.148			
00:00:28	13.599	73.148			
00:00:28	13.445	73.148			
00:00:28	12.694	73.148			
00:00:28	12.387	73.148			
00:00:28	11.464	73.148			
00:00:28	10.877	73.148			
00:00:28	10.331	73.148			
00:00:28	9.146	73.148			
00:00:28	8.674	73.148			
00:00:28	7.767	73.148			
00:00:29	7.004	77.576			
00:00:29	6.518	77.576			
00:00:29	5.705	77.576			
00:00:29	5.386	77.576			
00:00:29	4.619	77.581			
00:00:29	3.697	77.581			
00:00:29	3.209	77.581			
00:00:29	2.157	77.581			
00:00:29	1.578	77.581			
00:00:29	0.882	77.581			
00:00:29	0.013	77.581			
00:00:29	-0.439	77.581			
00:00:29	-1.155	77.581			
00:00:29	-1.335	77.581			
00:00:29	-1.242	77.581			
00:00:29	-1.407	77.581			
00:00:29	-0.982	77.581			
00:00:29	-0.999	77.581			
00:00:29	-0.781	77.581			
00:00:29	-0.300	77.581			
00:00:29	-0.249	77.581			
00:00:29	0.228	77.581			
00:00:29	0.176	77.581			
00:00:29	0.253	77.581			
00:00:29	0.617	77.581			
00:00:29	0.270	77.581			
00:00:29	0.563	77.581			
00:00:29	0.656	77.581			
00:00:29	0.428	77.581			
00:00:29	0.697	77.581			
00:00:29	0.330	77.581			
00:00:29	0.445	77.581			
00:00:29	0.531	77.581			
00:00:29	0.334	77.581			
00:00:29	0.481	77.581			
00:00:29	0.145	77.581			
00:00:29	0.103	77.581			
00:00:29	0.115	77.581			
00:00:29	-0.468	77.581			
00:00:29	-0.410	77.581			
00:00:29	-0.828	77.581			
00:00:29	-0.989	77.581			
00:00:29	-0.995	77.581			
00:00:29	-1.410	77.581			
00:00:29	-1.286	77.581			
00:00:29	-1.413	77.581			
00:00:29	-1.629	77.581			
00:00:29	-1.346	77.581			
00:00:29	-1.643	77.581			
00:00:29	-1.398	77.581			
00:00:29	-1.334	77.581			
00:00:29	-1.581	77.581			
00:00:29	-1.326	77.581			
00:00:29	-1.620	77.581			
00:00:29	-1.327	77.581			
00:00:29	-1.056	77.581			
00:00:29	-1.097	77.581			
00:00:29	-0.589	77.581			
00:00:29	-0.799	77.581			
00:00:29	-0.747	77.581			
00:00:29	-0.672	77.581			
00:00:29	-0.976	77.581			
00:00:29	-0.582	77.581			
00:00:29	-0.627	77.581			
00:00:29	-0.704	77.581			
00:00:29	-0.498	77.581			
00:00:29	-0.860	77.581			
00:00:29	-0.710	77.581			
00:00:29	-0.997	77.581			
00:00:29	-1.266	77.581			
00:00:29	-0.914	77.581			
00:00:29	-1.140	77.581			
00:00:29	-0.750	77.581			
00:00:29	-0.590	77.581			
00:00:29	-0.756	77.581			
00:00:29	-0.175	77.581			
00:00:29	-0.168	77.581			
00:00:29	0.427	77.581			
00:00:29	1.242	77.581			
00:00:29	2.089	77.581			
00:00:29	3.535	77.581			
00:00:29	4.835	77.581			
00:00:29	6.320	77.581			
00:00:29	7.990	77.581			
00:00:29	9.262	77.581			
00:00:29	10.842	77.581			
00:00:29	11.759	77.581			
00:00:29	12.548	77.581			
00:00:29	13.315	77.581			
00:00:29	13.342	77.581			
00:00:29	13.573	77.581			
00:00:29	13.325	77.581			
00:00:29	12.869	77.581			
00:00:29	12.617	77.581			
00:00:29	11.787	77.581			
00:00:29	11.488	77.581			
00:00:29	11.043	77.581			
00:00:29	10.219	77.581			
00:00:29	9.822	77.581			
00:00:29	8.847	77.581			
00:00:29	8.124	76.040			
00:00:29	7.491	76.040			
00:00:29	6.438	76.040			
00:00:29	5.889	76.040			
00:00:29	5.024	76.045			
00:00:29	4.305	76.045			
00:00:29	3.738	76.045			
00:00:29	2.771	76.045			
00:00:29	2.367	76.045			
00:00:29	1.473	76.045			
00:00:29	0.703	76.045			
00:00:29	0.485	76.045			
00:00:29	-0.196	76.045			
00:00:29	-0.415	76.045			
00:00:29	-0.711	76.045			
00:00:29	-0.918	76.045			
00:00:29	-0.634	76.045			
00:00:29	-0.731	76.045			
00:00:29	-0.508	76.045			
00:00:29	-0.200	76.045			
00:00:29	-0.350	76.045			
00:00:29	-0.002	76.045			
00:00:29	-0.014	76.045			
00:00:29	0.154	76.045			
00:00:29	0.507	76.045			
00:00:29	0.351	76.045			
00:00:29	0.720	76.045			
00:00:29	0.599	76.045			
00:00:30	0.522	76.045			
00:00:30	0.665	76.045			
00:00:30	0.137	76.045			
00:00:30	0.252	76.045			
00:00:30	0.112	76.045			
00:00:30	-0.421	76.045			
00:00:30	-0.314	76.045			
00:00:30	-0.823	76.045			
00:00:30	-0.823	76.045			
00:00:30	-0.916	76.045			
00:00:30	-1.347	76.045			
00:00:30	-1.192	76.045			
00:00:30	-1.534	76.045			
00:00:30	-1.672	76.045			
00:00:30	-1.867	76.045			
00:00:30	-2.417	76.045			
00:00:30	-2.325	76.045			
00:00:30	-2.715	76.045			
00:00:30	-2.807	76.045			
00:00:30	-2.614	76.045			
00:00:30	-2.862	76.045			
00:00:30	-2.502	76.045			
00:00:30	-2.676	76.045			
00:00:30	-2.796	76.045			
00:00:30	-2.513	76.045			
00:00:30	-2.934	76.045			
00:00:30	-2.717	76.045			
00:00:30	-2.566	76.045			
00:00:30	-2.537	76.045			
00:00:30	-2.174	76.045			
00:00:30	-2.595	76.045			
00:00:30	-2.503	76.045			
00:00:30	-2.273	76.045			
00:00:30	-2.407	76.045			
00:00:30	-1.902	76.045			
00:00:30	-2.170	76.045			
00:00:30	-2.072	76.045			
00:00:30	-1.792	76.045			
00:00:30	-1.996	76.045			
00:00:30	-1.587	76.045			
00:00:30	-1.710	76.045			
00:00:30	-1.699	76.045			
00:00:30	-1.559	76.045			
00:00:30	-2.055	76.045			
00:00:30	-1.934	76.045			
00:00:30	-2.081	76.045			
00:00:30	-2.137	76.045			
00:00:30	-1.795	76.045			
00:00:30	-1.888	76.045			
00:00:30	-1.305	76.045			
00:00:30	-0.769	76.045			
00:00:30	-0.161	76.045			
00:00:30	1.066	76.045			
00:00:30	1.729	76.045			
00:00:30	3.177	76.045			
00:00:30	4.801	76.045			
00:00:30	6.203	76.045			
00:00:30	8.181	76.045			
00:00:30	9.403	76.045			
00:00:30	10.684	76.045			
00:00:30	11.812	76.045			
00:00:30	12.303	76.045			
00:00:30	13.262	76.045			
00:00:30	13.463	76.045			
00:00:30	13.554	76.045			
00:00:30	13.645	76.045			
00:00:30	12.833	76.045			
00:00:30	12.517	76.045			
00:00:30	11.871	76.045			
00:00:30	11.071	76.045			
00:00:30	10.562	76.045			
00:00:30	9.358	76.045			
00:00:30	8.734	75.294			
00:00:30	7.770	75.294			
00:00:30	6.679	75.294			
00:00:30	6.285	75.294			
00:00:30	5.197	75.299			
00:00:30	4.741	75.299			
00:00:30	4.269	75.299			
00:00:30	3.284	75.299			
00:00:30	2.774	75.299			
00:00:30	1.768	75.299			
00:00:30	0.874	75.299			
00:00:30	0.380	75.299			
00:00:30	-0.530	75.299			
00:00:30	-0.741	75.299			
00:00:30	-1.277	75.299			
00:00:30	-1.592	75.299			
00:00:30	-1.574	75.299			
00:00:30	-1.994	75.299			
00:00:30	-1.665	75.299			
00:00:30	-1.416	75.299			
00:00:30	-1.287	75.299			
00:00:30	-0.663	75.299			
00:00:30	-0.734	75.299			
00:00:30	-0.450	75.299			
00:00:30	-0.239	75.299			
00:00:30	-0.468	75.299			
00:00:30	-0.082	75.299			
00:00:30	-0.180	75.299			
00:00:30	-0.091	75.299			
00:00:30	0.135	75.299			
00:00:30	-0.071	75.299			
00:00:30	0.195	75.299			
00:00:30	0.091	75.299			
00:00:30	0.071	75.299			
00:00:30	0.238	75.299			
00:00:30	-0.215	75.299			
00:00:30	-0.088	75.299			
00:00:30	-0.362	75.299			
00:00:30	-0.628	75.299			
00:00:30	-0.430	75.299			
00:00:30	-0.915	75.299			
00:00:30	-0.804	75.299			
00:00:30	-0.975	75.299			
00:00:30	-1.251	75.299			
00:00:30	-0.949	75.299			
00:00:30	-1.445	75.299			
00:00:30	-1.521	75.299			
00:00:30	-1.628	75.299			
00:00:30	-2.045	75.299			
00:00:30	-1.659	75.299			
00:00:30	-1.768	75.299			
00:00:30	-1.573	75.299			
00:00:30	-1.526	75.299			
00:00:30	-2.015	75.299			
00:00:30	-1.771	75.299			
00:00:30	-1.948	75.299			
00:00:31	-1.714	75.299			
00:00:31	-1.281	75.299			
00:00:31	-1.442	75.299			
00:00:31	-1.142	75.299			
00:00:31	-1.231	75.299			
00:00:31	-1.350	75.299			
00:00:31	-1.049	75.299			
00:00:31	-1.189	75.299			
00:00:31	-1.043	75.299			
00:00:31	-1.046	75.299			
00:00:31	-1.324	75.299			
00:00:31	-1.105	75.299			
00:00:31	-1.469	75.299			
00:00:31	-1.312	75.299			
00:00:31	-1.291	75.299			
00:00:31	-1.648	75.299			
00:00:31	-1.385	75.299			
00:00:31	-1.543	75.299			
00:00:31	-1.398	75.299			
00:00:31	-1.204	75.299			
00:00:31	-1.536	75.299			
00:00:31	-1.336	75.299			
00:00:31	-1.380	75.299			
00:00:31	-1.002	75.299			
00:00:31	-0.121	75.299			
00:00:31	0.614	75.299			
00:00:31	1.993	75.299			
00:00:31	3.235	75.299			
00:00:31	4.511	75.299			
00:00:31	6.295	75.299			
00:00:31	7.700	75.299			
00:00:31	9.394	75.299			
00:00:31	10.685	75.299			
00:00:31	11.358	75.299			
00:00:31	12.366	75.299			
00:00:31	12.663	75.299			
00:00:31	12.961	75.299			
00:00:31	13.140	75.299			
00:00:31	12.676	75.299			
00:00:31	12.460	75.299			
00:00:31	11.793	75.299			
00:00:31	11.048	75.299			
00:00:31	10.478	75.299			
00:00:31	9.402	75.299			
00:00:31	8.877	76.800			
00:00:31	8.150	76.800			
00:00:31	7.413	76.800			
00:00:31	6.868	76.800			
00:00:31	5.702	76.805			
00:00:31	5.246	76.805			
00:00:31	4.532	76.805			
00:00:31	3.715	76.805			
00:00:31	3.384	76.805			
00:00:31	2.368	76.805			
00:00:31	1.655	76.805			
00:00:31	1.092	76.805			
00:00:31	0.291	76.805			
00:00:31	-0.063	76.805			
00:00:31	-0.741	76.805			
00:00:31	-0.970	76.805			
00:00:31	-0.940	76.805			
00:00:31	-1.394	76.805			
00:00:31	-1.106	76.805			
00:00:31	-1.093	76.805			
00:00:31	-1.038	76.805			
00:00:31	-0.675	76.805			
00:00:31	-0.891	76.805			
00:00:31	-0.425	76.805			
00:00:31	-0.223	76.805			
00:00:31	0.021	76.805			
00:00:31	0.485	76.805			
00:00:31	0.164	76.805			
00:00:31	0.387	76.805			
00:00:31	0.359	76.805			
00:00:31	0.124	76.805			
00:00:31	0.427	76.805			
00:00:31	0.118	76.805			
00:00:31	0.091	76.805			
00:00:31	0.163	76.805			
00:00:31	-0.209	76.805			
00:00:31	-0.112	76.805			
00:00:31	-0.664	76.805			
00:00:31	-0.880	76.805			
00:00:31	-0.776	76.805			
00:00:31	-1.328	76.805			
00:00:31	-1.080	76.805			
00:00:31	-1.395	76.805			
00:00:31	-1.726	76.805			
00:00:31	-1.700	76.805			
00:00:31	-2.262	76.805			
00:00:31	-2.236	76.805			
00:00:31	-2.609	76.805			
00:00:31	-2.832	76.805			
00:00:31	-2.521	76.805			
00:00:31	-2.745	76.805			
00:00:31	-2.462	76.805			
00:00:31	-2.340	76.805			
00:00:31	-2.516	76.805			
00:00:31	-2.069	76.805			
00:00:31	-2.184	76.805			
00:00:31	-1.833	76.805			
00:00:31	-1.405	76.805			
00:00:31	-1.870	76.805			
00:00:31	-1.337	76.805			
00:00:31	-1.520	76.805			
00:00:31	-1.481	76.805			
00:00:31	-0.881	76.805			
00:00:31	-1.130	76.805			
00:00:31	-0.700	76.805			
00:00:31	-0.864	76.805			
00:00:31	-1.097	76.805			
00:00:31	-0.653	76.805			
00:00:31	-1.205	76.805			
00:00:31	-1.045	76.805			
00:00:31	-1.214	76.805			
00:00:31	-1.701	76.805			
00:00:31	-1.184	76.805			
00:00:31	-1.651	76.805			
00:00:31	-1.557	76.805			
00:00:31	-1.450	76.805			
00:00:31	-1.849	76.805			
00:00:31	-1.222	76.805			
00:00:31	-1.261	76.805			
00:00:31	-0.737	76.805			
00:00:31	0.166	76.805			
00:00:31	0.489	76.805			
00:00:31	2.127	76.805			
00:00:31	3.218	76.805			
00:00:32	4.664	68.576			
00:00:32	6.775	68.576			
00:00:32	7.896	68.576			
00:00:32	9.738	68.576			
00:00:32	11.036	68.576			
00:00:32	11.916	68.576			
00:00:32	13.322	68.576			
00:00:32	13.600	68.576			
00:00:32	14.566	68.576			
00:00:32	15.063	68.576			
00:00:32	14.748	68.576			
00:00:32	15.192	68.576			
00:00:32	14.472	68.576			
00:00:32	14.235	68.576			
00:00:32	13.909	68.576			
00:00:32	12.694	68.576			
00:00:32	12.503	68.576			
00:00:32	11.547	68.576			
00:00:32	10.930	68.576			
00:00:32	10.742	68.576			
00:00:32	9.616	104.106			
00:00:32	9.528	104.106			
00:00:32	8.715	104.106			
00:00:32	7.830	104.106			
00:00:32	7.664	104.106			
00:00:32	6.315	104.106			
00:00:32	5.821	104.106			
00:00:32	4.707	104.106			
00:00:32	3.425	104.106			
00:00:32	3.210	104.106			
00:00:32	2.020	104.106			
00:00:32	1.789	104.106			
00:00:32	1.445	104.106			
00:00:32	0.688	104.106			
00:00:32	0.903	104.106			
00:00:32	0.530	104.106			
00:00:32	0.538	104.106			
00:00:32	0.882	104.106			
00:00:32	0.585	104.106			
00:00:32	1.085	104.106			
00:00:32	0.908	104.106			
00:00:32	0.979	104.106			
00:00:32	1.374	104.106			
00:00:32	0.958	104.106			
00:00:32	1.304	104.106			
00:00:32	1.037	104.106			
00:00:32	0.635	104.106			
00:00:32	0.718	104.106			
00:00:32	0.173	104.106			
00:00:32	0.148	104.106			
00:00:32	-0.115	104.106			
00:00:32	-0.495	104.106			
00:00:32	-0.274	104.106			
00:00:32	-0.719	104.106			
00:00:32	-0.783	104.106			
00:00:32	-0.812	104.106			
00:00:32	-1.306	104.106			
00:00:32	-1.180	104.106			
00:00:32	-1.523	104.106			
00:00:32	-1.455	104.106			
00:00:32	-1.498	104.106			
00:00:32	-2.178	104.106			
00:00:32	-2.157	104.106			
00:00:32	-2.715	104.106			
00:00:32	-3.042	104.106			
00:00:32	-3.146	104.106			
00:00:32	-3.849	104.106			
00:00:32	-3.704	104.106			
00:00:32	-3.857	104.106			
00:00:32	-4.004	104.106			
00:00:32	-3.791	104.106			
00:00:32	-4.186	104.106			
00:00:32	-3.901	104.106			
00:00:32	-3.742	104.106			
00:00:32	-3.892	104.106			
00:00:32	-3.526	104.106			
00:00:32	-3.618	104.106			
00:00:32	-3.336	104.106			
00:00:32	-3.072	104.106			
00:00:32	-3.131	104.106			
00:00:32	-2.558	104.106			
00:00:32	-2.520	104.106			
00:00:32	-2.202	104.106			
00:00:32	-1.799	104.106			
00:00:32	-2.090	104.106			
00:00:32	-1.881	104.106			
00:00:32	-1.999	104.106			
00:00:32	-2.037	104.106			
00:00:32	-1.821	104.106			
00:00:32	-2.306	104.106			
00:00:32	-2.226	104.106			
00:00:32	-2.362	104.106			
00:00:32	-2.414	104.106			
00:00:32	-2.086	104.106			
00:00:32	-2.298	104.106			
00:00:32	-2.037	104.106			
00:00:32	-1.696	104.106			
00:00:32	-1.802	104.106			
00:00:32	-1.069	104.106			
00:00:32	-0.648	104.106			
00:00:32	0.154	104.106			
00:00:32	1.390	104.106			
00:00:32	2.435	104.106			
00:00:32	4.334	104.106			
00:00:32	5.813	104.106			
00:00:32	7.374	104.106			
00:00:32	9.212	104.106			
00:00:32	10.288	104.106			
00:00:32	11.733	104.106			
00:00:32	12.518	104.106			
00:00:32	12.989	104.106			
00:00:32	13.613	104.106			
00:00:32	13.351	104.106			
00:00:32	13.573	104.106			
00:00:32	13.322	104.106			
00:00:32	12.693	104.106			
00:00:32	12.445	104.106			
00:00:32	11.432	104.106			
00:00:32	10.883	104.106			
00:00:32	10.219	104.106			
00:00:32	9.182	104.106			
00:00:32	8.825	104.106			
00:00:32	7.993	104.106			
00:00:32	7.237	104.106			
00:00:32	6.665	75.294			
00:00:32	5.686	75.294			
00:00:32	5.334	75.294			
00:00:32	4.559	75.294			
00:00:33	3.731	75.299			
00:00:33	3.016	75.299			
00:00:33	1.887	75.299			
00:00:33	1.402	75.299			
00:00:33	0.636	75.299			
00:00:33	-0.052	75.299			
00:00:33	-0.170	75.299			
00:00:33	-0.927	75.299			
00:00:33	-1.181	75.299			
00:00:33	-1.426	75.299			
00:00:33	-1.698	75.299			
00:00:33	-1.333	75.299			
00:00:33	-1.492	75.299			
00:00:33	-1.172	75.299			
00:00:33	-0.776	75.299			
00:00:33	-0.845	75.299			
00:00:33	-0.407	75.299			
00:00:33	-0.460	75.299			
00:00:33	-0.307	75.299			
00:00:33	0.068	75.299			
00:00:33	-0.152	75.299			
00:00:33	0.040	75.299			
00:00:33	-0.123	75.299			
00:00:33	-0.168	75.299			
00:00:33	0.013	75.299			
00:00:33	-0.356	75.299			
00:00:33	-0.206	75.299			
00:00:33	-0.232	75.299			
00:00:33	-0.441	75.299			
00:00:33	-0.202	75.299			
00:00:33	-0.635	75.299			
00:00:33	-0.807	75.299			
00:00:33	-1.001	75.299			
00:00:33	-1.321	75.299			
00:00:33	-1.145	75.299			
00:00:33	-1.563	75.299			
00:00:33	-1.491	75.299			
00:00:33	-1.573	75.299			
00:00:33	-2.113	75.299			
00:00:33	-2.026	75.299			
00:00:33	-2.456	75.299			
00:00:33	-2.759	75.299			
00:00:33	-2.671	75.299			
00:00:33	-3.033	75.299			
00:00:33	-2.800	75.299			
00:00:33	-2.871	75.299			
00:00:33	-2.981	75.299			
00:00:33	-2.624	75.299			
00:00:33	-2.873	75.299			
00:00:33	-2.666	75.299			
00:00:33	-2.604	75.299			
00:00:33	-2.766	75.299			
00:00:33	-2.416	75.299			
00:00:33	-2.640	75.299			
00:00:33	-2.390	75.299			
00:00:33	-2.214	75.299			
00:00:33	-2.424	75.299			
00:00:33	-2.013	75.299			
00:00:33	-2.061	75.299			
00:00:33	-1.846	75.299			
00:00:33	-1.520	75.299			
00:00:33	-1.829	75.299			
00:00:33	-1.730	75.299			
00:00:33	-1.922	75.299			
00:00:33	-1.909	75.299			
00:00:33	-1.692	75.299			
00:00:33	-1.958	75.299			
00:00:33	-1.626	75.299			
00:00:33	-1.639	75.299			
00:00:33	-1.681	75.299			
00:00:33	-1.384	75.299			
00:00:33	-1.683	75.299			
00:00:33	-1.528	75.299			
00:00:33	-1.416	75.299			
00:00:33	-1.194	75.299			
00:00:33	-0.338	75.299			
00:00:33	0.136	75.299			
00:00:33	1.068	75.299			
00:00:33	2.277	75.299			
00:00:33	3.468	75.299			
00:00:33	5.312	75.299			
00:00:33	6.696	75.299			
00:00:33	8.204	75.299			
00:00:33	9.723	75.299			
00:00:33	10.550	75.299			
00:00:33	11.837	75.299			
00:00:33	12.477	75.299			
00:00:33	12.964	75.299			
00:00:33	13.449	75.299			
00:00:33	13.216	75.299			
00:00:33	13.126	75.299			
00:00:33	12.645	75.299			
00:00:33	12.128	75.299			
00:00:33	11.882	75.299			
00:00:33	11.004	75.299			
00:00:33	10.455	75.299			
00:00:33	9.813	75.299			
00:00:33	8.765	75.299			
00:00:33	8.246	75.299			
00:00:33	7.326	75.299			
00:00:33	6.691	73.846			
00:00:33	6.082	73.846			
00:00:33	5.137	73.846			
00:00:33	4.774	73.846			
00:00:33	3.914	73.851			
00:00:33	3.188	73.851			
00:00:33	2.779	73.851			
00:00:33	1.656	73.851			
00:00:33	1.091	73.851			
00:00:33	0.152	73.851			
00:00:33	-0.561	73.851			
00:00:33	-0.740	73.851			
00:00:33	-1.391	73.851			
00:00:33	-1.523	73.851			
00:00:33	-1.708	73.851			
00:00:33	-2.048	73.851			
00:00:33	-1.616	73.851			
00:00:33	-1.523	73.851			
00:00:33	-1.210	73.851			
00:00:33	-0.812	73.851			
00:00:33	-0.708	73.851			
00:00:33	-0.103	73.851			
00:00:33	-0.339	73.851			
00:00:33	-0.135	73.851			
00:00:33	0.204	73.851			
00:00:33	-0.098	73.851			
00:00:33	0.054	73.851			
00:00:33	-0.034	73.851			
00:00:34	-0.134	73.851			
00:00:34	-0.072	73.851			
00:00:34	-0.493	73.851			
00:00:34	-0.426	73.851			
00:00:34	-0.655	73.851			
00:00:34	-0.840	73.851			
00:00:34	-0.653	73.851			
00:00:34	-1.102	73.851			
00:00:34	-1.085	73.851			
00:00:34	-1.156	73.851			
00:00:34	-1.468	73.851			
00:00:34	-1.339	73.851			
00:00:34	-1.803	73.851			
00:00:34	-1.831	73.851			
00:00:34	-1.968	73.851			
00:00:34	-2.278	73.851			
00:00:34	-2.109	73.851			
00:00:34	-2.402	73.851			
00:00:34	-2.271	73.851			
00:00:34	-1.895	73.851			
00:00:34	-2.137	73.851			
00:00:34	-1.924	73.851			
00:00:34	-2.137	73.851			
00:00:34	-2.197	73.851			
00:00:34	-1.973	73.851			
00:00:34	-2.101	73.851			
00:00:34	-1.706	73.851			
00:00:34	-1.781	73.851			
00:00:34	-1.735	73.851			
00:00:34	-1.292	73.851			
00:00:34	-1.613	73.851			
00:00:34	-1.379	73.851			
00:00:34	-1.201	73.851			
00:00:34	-1.422	73.851			
00:00:34	-1.217	73.851			
00:00:34	-1.477	73.851			
00:00:34	-1.279	73.851			
00:00:34	-1.126	73.851			
00:00:34	-1.365	73.851			
00:00:34	-1.226	73.851			
00:00:34	-1.401	73.851			
00:00:34	-1.402	73.851			
00:00:34	-1.189	73.851			
00:00:34	-1.446	73.851			
00:00:34	-1.248	73.851			
00:00:34	-1.476	73.851			
00:00:34	-1.650	73.851			
00:00:34	-1.443	73.851			
00:00:34	-1.506	73.851			
00:00:34	-0.780	73.851			
00:00:34	-0.072	73.851			
00:00:34	0.779	73.851			
00:00:34	2.313	73.851			
00:00:34	3.496	73.851			
00:00:34	5.118	73.851			
00:00:34	6.730	73.851			
00:00:34	8.005	73.851			
00:00:34	9.716	73.851			
00:00:34	10.777	73.851			
00:00:34	11.687	73.851			
00:00:34	12.552	73.851			
00:00:34	12.666	73.851			
00:00:34	13.043	73.851			
00:00:34	12.800	73.851			
00:00:34	12.475	73.851			
00:00:34	12.287	73.851			
00:00:34	11.415	73.851			
00:00:34	10.980	73.851			
00:00:34	10.284	73.851			
00:00:34	9.613	73.851			
00:00:34	9.179	73.851			
00:00:34	8.399	73.851			
00:00:34	7.935	76.040			
00:00:34	7.304	76.040			
00:00:34	6.313	76.040			
00:00:34	5.727	76.040			
00:00:34	4.848	76.045			
00:00:34	4.352	76.045			
00:00:34	3.829	76.045			
00:00:34	2.878	76.045			
00:00:34	2.286	76.045			
00:00:34	1.238	76.045			
00:00:34	0.510	76.045			
00:00:34	-0.095	76.045			
00:00:34	-0.985	76.045			
00:00:34	-1.042	76.045			
00:00:34	-1.318	76.045			
00:00:34	-1.458	76.045			
00:00:34	-1.226	76.045			
00:00:34	-1.468	76.045			
00:00:34	-1.166	76.045			
00:00:34	-1.096	76.045			
00:00:34	-1.073	76.045			
00:00:34	-0.575	76.045			
00:00:34	-0.599	76.045			
00:00:34	-0.303	76.045			
00:00:34	-0.209	76.045			
00:00:34	-0.267	76.045			
00:00:34	0.001	76.045			
00:00:34	-0.239	76.045			
00:00:34	-0.169	76.045			
00:00:34	0.029	76.045			
00:00:34	-0.190	76.045			
00:00:34	-0.034	76.045			
00:00:34	-0.459	76.045			
00:00:34	-0.605	76.045			
00:00:34	-0.514	76.045			
00:00:34	-0.826	76.045			
00:00:34	-0.486	76.045			
00:00:34	-0.669	76.045			
00:00:34	-0.950	76.045			
00:00:34	-0.892	76.045			
00:00:34	-1.336	76.045			
00:00:34	-1.209	76.045			
00:00:34	-1.336	76.045			
00:00:34	-1.699	76.045			
00:00:34	-1.570	76.045			
00:00:34	-1.962	76.045			
00:00:34	-1.891	76.045			
00:00:34	-1.932	76.045			
00:00:34	-2.448	76.045			
00:00:34	-2.415	76.045			
00:00:34	-2.767	76.045			
00:00:34	-2.649	76.045			
00:00:34	-2.393	76.045			
00:00:34	-2.777	76.045			
00:00:34	-2.634	76.045			
00:00:34	-2.778	76.045			
00:00:35	-2.781	76.045			
00:00:35	-2.505	76.045			
00:00:35	-2.669	76.045			
00:00:35	-2.187	76.045			
00:00:35	-2.043	76.045			
00:00:35	-1.947	76.045			
00:00:35	-1.600	76.045			
00:00:35	-1.912	76.045			
00:00:35	-1.746	76.045			
00:00:35	-1.618	76.045			
00:00:35	-1.691	76.045			
00:00:35	-1.319	76.045			
00:00:35	-1.559	76.045			
00:00:35	-1.451	76.045			
00:00:35	-1.414	76.045			
00:00:35	-1.715	76.045			
00:00:35	-1.463	76.045			
00:00:35	-1.667	76.045			
00:00:35	-1.725	76.045			
00:00:35	-1.599	76.045			
00:00:35	-1.839	76.045			
00:00:35	-1.523	76.045			
00:00:35	-1.448	76.045			
00:00:35	-1.129	76.045			
00:00:35	-0.379	76.045			
00:00:35	0.326	76.045			
00:00:35	1.830	76.045			
00:00:35	3.259	76.045			
00:00:35	4.563	76.045			
00:00:35	6.315	76.045			
00:00:35	7.649	76.045			
00:00:35	9.344	76.045			
00:00:35	10.754	76.045			
00:00:35	11.904	76.045			
00:00:35	13.112	76.045			
00:00:35	13.585	76.045			
00:00:35	14.125	76.045			
00:00:35	14.353	76.045			
00:00:35	14.094	76.045			
00:00:35	14.223	76.045			
00:00:35	13.743	76.045			
00:00:35	13.219	76.045			
00:00:35	12.653	76.045			
00:00:35	11.690	76.045			
00:00:35	11.260	76.045			
00:00:35	10.608	76.045			
00:00:35	9.892	76.045			
00:00:35	9.399	76.045			
00:00:35	8.457	73.846			
00:00:35	8.014	73.846			
00:00:35	7.321	73.846			
00:00:35	6.457	73.846			
00:00:35	5.994	73.851			
00:00:35	5.026	73.851			
00:00:35	4.408	73.851			
00:00:35	3.755	73.851			
00:00:35	2.670	73.851			
00:00:35	2.248	73.851			
00:00:35	1.317	73.851			
00:00:35	0.603	73.851			
00:00:35	-0.018	73.851			
00:00:35	-0.876	73.851			
00:00:35	-0.828	73.851			
00:00:35	-1.100	73.851			
00:00:35	-1.219	73.851			
00:00:35	-1.003	73.851			
00:00:35	-1.442	73.851			
00:00:35	-1.117	73.851			
00:00:35	-1.069	73.851			
00:00:35	-1.082	73.851			
00:00:35	-0.757	73.851			
00:00:35	-0.846	73.851			
00:00:35	-0.406	73.851			
00:00:35	-0.181	73.851			
00:00:35	-0.307	73.851			
00:00:35	0.017	73.851			
00:00:35	-0.214	73.851			
00:00:35	-0.225	73.851			
00:00:35	-0.337	73.851			
00:00:35	-0.813	73.851			
00:00:35	-0.745	73.851			
00:00:35	-1.012	73.851			
00:00:35	-1.308	73.851			
00:00:35	-1.362	73.851			
00:00:35	-1.621	73.851			
00:00:35	-1.272	73.851			
00:00:35	-1.434	73.851			
00:00:35	-1.711	73.851			
00:00:35	-1.654	73.851			
00:00:35	-1.958	73.851			
00:00:35	-1.638	73.851			
00:00:35	-1.817	73.851			
00:00:35	-1.909	73.851			
00:00:35	-1.727	73.851			
00:00:35	-2.183	73.851			
00:00:35	-2.081	73.851			
00:00:35	-2.106	73.851			
00:00:35	-2.404	73.851			
00:00:35	-2.265	73.851			
00:00:35	-2.564	73.851			
00:00:35	-2.428	73.851			
00:00:35	-2.280	73.851			
00:00:35	-2.601	73.851			
00:00:35	-2.304	73.851			
00:00:35	-2.459	73.851			
00:00:35	-2.369	73.851			
00:00:35	-2.099	73.851			
00:00:35	-2.153	73.851			
00:00:35	-1.710	73.851			
00:00:35	-1.679	73.851			
00:00:35	-1.628	73.851			
00:00:35	-1.259	73.851			
00:00:35	-1.451	73.851			
00:00:35	-1.227	73.851			
00:00:35	-1.312	73.851			
00:00:35	-1.602	73.851			
00:00:35	-1.337	73.851			
00:00:35	-1.633	73.851			
00:00:35	-1.508	73.851			
00:00:35	-1.514	73.851			
00:00:35	-1.670	73.851			
00:00:35	-1.355	73.851			
00:00:35	-1.609	73.851			
00:00:35	-1.419	73.851			
00:00:35	-1.306	73.851			
00:00:35	-1.596	73.851			
00:00:35	-1.249	73.851			
00:00:35	-1.239	73.851			
00:00:36	-0.822	73.851			
00:00:36	0.011	73.851			
00:00:36	0.758	73.851			
00:00:36	2.290	73.851			
00:00:36	3.571	73.851			
00:00:36	4.937	73.851			
00:00:36	6.804	73.851			
00:00:36	7.986	73.851			
00:00:36	9.637	73.851			
00:00:36	11.033	73.851			
00:00:36	12.017	73.851			
00:00:36	13.159	73.851			
00:00:36	13.448	73.851			
00:00:36	13.920	73.851			
00:00:36	13.899	73.851			
00:00:36	13.510	73.851			
00:00:36	13.629	73.851			
00:00:36	13.152	73.851			
00:00:36	12.609	73.851			
00:00:36	12.046	73.851			
00:00:36	11.155	73.851			
00:00:36	10.788	73.851			
00:00:36	9.995	73.851			
00:00:36	9.167	73.851			
00:00:36	8.669	73.846			
00:00:36	7.749	73.846			
00:00:36	7.419	73.846			
00:00:36	6.871	73.846			
00:00:36	6.159	73.851			
00:00:36	5.749	73.851			
00:00:36	4.525	73.851			
00:00:36	3.762	73.851			
00:00:36	3.000	73.851			
00:00:36	2.088	73.851			
00:00:36	1.669	73.851			
00:00:36	0.815	73.851			
00:00:36	0.299	73.851			
00:00:36	-0.116	73.851			
00:00:36	-0.665	73.851			
