RAW Data export file (tab separated)


Client:	,kozawa
Session:	kozawa5
Date:	06-07-2020
Time:	10:39:16
Duration:	122	Seconds.
Output rate:	128	Samples/sec.

hh:mm:ss	128 SPS	32 SPS	
TIME	Sensor-G:BVP	HR (BVP)	Events	Segments	


00:00:00	1.577	70.000			
00:00:00	3.165	70.000			
00:00:00	4.856	70.000			
00:00:00	6.412	70.000			
00:00:00	8.207	70.000			
00:00:00	9.599	70.000			
00:00:00	11.094	70.000			
00:00:00	12.323	70.000			
00:00:00	12.992	70.000			
00:00:00	13.734	70.000			
00:00:00	14.125	70.000			
00:00:00	14.346	70.000			
00:00:00	14.363	70.000			
00:00:00	13.859	70.000			
00:00:00	13.620	70.000			
00:00:00	13.127	70.000			
00:00:00	12.647	70.000			
00:00:00	12.221	70.000			
00:00:00	11.290	70.000			
00:00:00	10.651	70.000			
00:00:00	10.034	70.000			
00:00:00	9.265	70.000			
00:00:00	8.675	70.000			
00:00:00	7.728	70.000			
00:00:00	7.016	70.000			
00:00:00	6.336	70.000			
00:00:00	5.446	70.000			
00:00:00	4.904	70.000			
00:00:00	4.088	70.000			
00:00:00	3.247	70.000			
00:00:00	2.611	70.000			
00:00:00	1.522	70.000			
00:00:00	0.956	70.000			
00:00:00	0.254	70.000			
00:00:00	-0.276	70.000			
00:00:00	-0.373	70.000			
00:00:00	-0.893	70.000			
00:00:00	-1.034	70.000			
00:00:00	-1.210	70.000			
00:00:00	-1.034	70.000			
00:00:00	-0.567	70.000			
00:00:00	-0.525	70.000			
00:00:00	-0.299	70.000			
00:00:00	-0.294	70.000			
00:00:00	-0.443	70.000			
00:00:00	-0.132	70.000			
00:00:00	-0.182	70.000			
00:00:00	-0.103	70.000			
00:00:00	-0.076	70.000			
00:00:00	-0.345	70.000			
00:00:00	-0.304	70.000			
00:00:00	-0.546	70.000			
00:00:00	-0.669	70.000			
00:00:00	-0.484	70.000			
00:00:00	-0.599	70.000			
00:00:00	-0.405	70.000			
00:00:00	-0.783	70.000			
00:00:00	-1.091	70.000			
00:00:00	-1.021	70.000			
00:00:00	-1.329	70.000			
00:00:00	-1.324	70.000			
00:00:00	-1.568	70.000			
00:00:00	-1.861	70.000			
00:00:00	-1.796	70.000			
00:00:00	-2.051	70.000			
00:00:00	-2.114	70.000			
00:00:00	-2.259	70.000			
00:00:00	-2.476	70.000			
00:00:00	-2.334	70.000			
00:00:00	-2.540	70.000			
00:00:00	-2.681	70.000			
00:00:00	-2.501	70.000			
00:00:00	-2.450	70.000			
00:00:00	-2.210	70.000			
00:00:00	-2.297	70.000			
00:00:00	-2.303	70.000			
00:00:00	-2.071	70.000			
00:00:00	-2.167	70.000			
00:00:00	-2.112	70.000			
00:00:00	-2.149	70.000			
00:00:00	-2.089	70.000			
00:00:00	-1.831	70.000			
00:00:00	-1.974	70.000			
00:00:00	-1.786	70.000			
00:00:00	-1.801	70.000			
00:00:00	-1.900	70.000			
00:00:00	-1.699	70.000			
00:00:00	-2.003	70.000			
00:00:00	-2.111	70.000			
00:00:00	-1.991	70.000			
00:00:00	-2.161	70.000			
00:00:00	-2.044	70.000			
00:00:00	-2.129	70.000			
00:00:00	-2.128	70.000			
00:00:00	-2.028	70.000			
00:00:00	-2.185	70.000			
00:00:00	-1.930	70.000			
00:00:00	-1.998	70.000			
00:00:00	-1.937	70.000			
00:00:00	-1.735	70.000			
00:00:00	-1.599	70.000			
00:00:00	-1.030	70.000			
00:00:00	-0.412	70.000			
00:00:00	0.242	70.000			
00:00:00	1.541	70.000			
00:00:00	2.979	70.000			
00:00:00	4.788	70.000			
00:00:00	6.501	70.000			
00:00:00	8.036	70.000			
00:00:00	9.716	70.000			
00:00:00	11.001	70.000			
00:00:00	12.233	70.000			
00:00:00	13.135	70.000			
00:00:00	13.567	70.000			
00:00:00	14.069	70.000			
00:00:00	13.992	70.000			
00:00:00	13.911	70.000			
00:00:00	13.919	70.000			
00:00:00	13.342	70.000			
00:00:00	13.025	70.000			
00:00:00	12.228	70.000			
00:00:00	11.437	70.000			
00:00:00	10.910	70.000			
00:00:00	10.039	70.000			
00:00:00	9.245	70.000			
00:00:00	8.322	70.000			
00:00:00	7.448	70.000			
00:00:00	6.904	70.000			
00:00:01	6.144	70.000			
00:00:01	5.460	70.000			
00:00:01	4.725	70.000			
00:00:01	3.727	70.000			
00:00:01	3.044	70.000			
00:00:01	2.009	70.000			
00:00:01	1.208	70.000			
00:00:01	0.686	70.000			
00:00:01	-0.096	70.000			
00:00:01	-0.483	70.000			
00:00:01	-0.899	70.000			
00:00:01	-1.020	70.000			
00:00:01	-0.957	70.000			
00:00:01	-1.133	70.000			
00:00:01	-0.919	70.000			
00:00:01	-0.803	70.000			
00:00:01	-0.681	70.000			
00:00:01	-0.323	70.000			
00:00:01	-0.294	70.000			
00:00:01	0.019	70.000			
00:00:01	0.101	70.000			
00:00:01	0.117	70.000			
00:00:01	0.559	70.000			
00:00:01	0.644	70.000			
00:00:01	0.747	70.000			
00:00:01	0.519	70.000			
00:00:01	0.228	70.000			
00:00:01	0.256	70.000			
00:00:01	0.017	70.000			
00:00:01	-0.060	70.000			
00:00:01	-0.104	70.000			
00:00:01	-0.657	70.000			
00:00:01	-0.781	70.000			
00:00:01	-1.099	70.000			
00:00:01	-1.441	70.000			
00:00:01	-1.543	70.000			
00:00:01	-1.906	70.000			
00:00:01	-1.778	70.000			
00:00:01	-1.987	70.000			
00:00:01	-2.298	70.000			
00:00:01	-2.250	70.000			
00:00:01	-2.495	70.000			
00:00:01	-2.557	70.000			
00:00:01	-2.593	70.000			
00:00:01	-2.825	70.000			
00:00:01	-2.734	70.000			
00:00:01	-2.869	70.000			
00:00:01	-2.854	70.000			
00:00:01	-2.759	70.000			
00:00:01	-2.886	70.000			
00:00:01	-2.506	70.000			
00:00:01	-2.182	70.000			
00:00:01	-1.909	70.000			
00:00:01	-1.492	70.000			
00:00:01	-1.481	70.000			
00:00:01	-1.320	70.000			
00:00:01	-1.388	70.000			
00:00:01	-1.393	70.000			
00:00:01	-1.232	70.000			
00:00:01	-1.281	70.000			
00:00:01	-0.889	70.000			
00:00:01	-0.786	70.000			
00:00:01	-0.976	70.000			
00:00:01	-0.923	70.000			
00:00:01	-1.113	70.000			
00:00:01	-0.961	70.000			
00:00:01	-0.852	70.000			
00:00:01	-0.923	70.000			
00:00:01	-0.785	70.000			
00:00:01	-1.057	70.000			
00:00:01	-1.162	70.000			
00:00:01	-1.243	70.000			
00:00:01	-1.503	70.000			
00:00:01	-1.204	70.000			
00:00:01	-1.002	70.000			
00:00:01	-0.725	70.000			
00:00:01	-0.081	70.000			
00:00:01	0.475	70.000			
00:00:01	1.777	70.000			
00:00:01	3.119	70.000			
00:00:01	4.688	70.000			
00:00:01	6.661	70.000			
00:00:01	8.137	70.000			
00:00:01	9.671	70.000			
00:00:01	10.852	70.000			
00:00:01	11.545	70.000			
00:00:01	12.404	70.000			
00:00:01	12.892	70.000			
00:00:01	13.417	70.000			
00:00:01	13.678	70.000			
00:00:01	13.347	70.000			
00:00:01	13.236	70.000			
00:00:01	12.693	70.000			
00:00:01	12.211	70.000			
00:00:01	11.658	70.000			
00:00:01	10.698	70.000			
00:00:01	10.018	70.000			
00:00:01	9.271	70.000			
00:00:01	8.557	70.000			
00:00:01	7.949	70.000			
00:00:01	7.113	35.888			
00:00:01	6.642	35.888			
00:00:01	5.775	35.888			
00:00:01	4.706	35.888			
00:00:01	3.901	35.893			
00:00:01	2.940	35.893			
00:00:01	2.268	35.893			
00:00:01	1.525	35.893			
00:00:01	0.633	35.893			
00:00:01	0.332	35.893			
00:00:01	-0.129	35.893			
00:00:01	-0.315	35.893			
00:00:01	-0.460	35.893			
00:00:01	-0.777	35.893			
00:00:01	-0.589	35.893			
00:00:01	-0.652	35.893			
00:00:01	-0.565	35.893			
00:00:01	-0.201	35.893			
00:00:01	0.000	35.893			
00:00:01	0.398	35.893			
00:00:01	0.610	35.893			
00:00:01	0.682	35.893			
00:00:01	0.780	35.893			
00:00:01	0.544	35.893			
00:00:01	0.455	35.893			
00:00:01	0.373	35.893			
00:00:01	0.266	35.893			
00:00:01	0.388	35.893			
00:00:02	-0.057	35.893			
00:00:02	-0.254	35.893			
00:00:02	-0.367	35.893			
00:00:02	-0.625	35.893			
00:00:02	-0.463	35.893			
00:00:02	-0.778	35.893			
00:00:02	-0.970	35.893			
00:00:02	-1.112	35.893			
00:00:02	-1.475	35.893			
00:00:02	-1.425	35.893			
00:00:02	-1.625	35.893			
00:00:02	-1.579	35.893			
00:00:02	-1.535	35.893			
00:00:02	-1.861	35.893			
00:00:02	-1.872	35.893			
00:00:02	-2.188	35.893			
00:00:02	-2.547	35.893			
00:00:02	-2.447	35.893			
00:00:02	-2.550	35.893			
00:00:02	-2.307	35.893			
00:00:02	-2.201	35.893			
00:00:02	-2.228	35.893			
00:00:02	-1.973	35.893			
00:00:02	-2.192	35.893			
00:00:02	-1.973	35.893			
00:00:02	-1.683	35.893			
00:00:02	-1.582	35.893			
00:00:02	-1.353	35.893			
00:00:02	-1.549	35.893			
00:00:02	-1.578	35.893			
00:00:02	-1.523	35.893			
00:00:02	-1.667	35.893			
00:00:02	-1.384	35.893			
00:00:02	-1.433	35.893			
00:00:02	-1.527	35.893			
00:00:02	-1.444	35.893			
00:00:02	-1.627	35.893			
00:00:02	-1.520	35.893			
00:00:02	-1.582	35.893			
00:00:02	-1.550	35.893			
00:00:02	-1.344	35.893			
00:00:02	-1.535	35.893			
00:00:02	-1.295	35.893			
00:00:02	-0.995	35.893			
00:00:02	-0.718	35.893			
00:00:02	0.131	35.893			
00:00:02	0.830	35.893			
00:00:02	2.044	35.893			
00:00:02	3.521	35.893			
00:00:02	4.850	35.893			
00:00:02	6.679	35.893			
00:00:02	8.056	35.893			
00:00:02	9.592	35.893			
00:00:02	11.080	35.893			
00:00:02	12.003	35.893			
00:00:02	13.007	35.893			
00:00:02	13.517	35.893			
00:00:02	13.790	35.893			
00:00:02	13.997	35.893			
00:00:02	13.693	35.893			
00:00:02	13.557	35.893			
00:00:02	13.165	35.893			
00:00:02	12.527	35.893			
00:00:02	12.095	35.893			
00:00:02	11.162	35.893			
00:00:02	10.425	35.893			
00:00:02	9.786	35.893			
00:00:02	8.956	35.893			
00:00:02	8.521	79.175			
00:00:02	7.743	79.175			
00:00:02	7.064	79.175			
00:00:02	6.397	79.175			
00:00:02	5.561	79.180			
00:00:02	5.044	79.180			
00:00:02	4.256	79.180			
00:00:02	3.359	79.180			
00:00:02	2.581	79.180			
00:00:02	1.643	79.180			
00:00:02	1.046	79.180			
00:00:02	0.386	79.180			
00:00:02	-0.196	79.180			
00:00:02	-0.258	79.180			
00:00:02	-0.648	79.180			
00:00:02	-0.764	79.180			
00:00:02	-0.671	79.180			
00:00:02	-0.759	79.180			
00:00:02	-0.439	79.180			
00:00:02	-0.584	79.180			
00:00:02	-0.310	79.180			
00:00:02	-0.033	79.180			
00:00:02	0.004	79.180			
00:00:02	0.293	79.180			
00:00:02	0.051	79.180			
00:00:02	-0.017	79.180			
00:00:02	-0.092	79.180			
00:00:02	-0.521	79.180			
00:00:02	-0.290	79.180			
00:00:02	-0.349	79.180			
00:00:02	-0.393	79.180			
00:00:02	-0.382	79.180			
00:00:02	-0.652	79.180			
00:00:02	-0.635	79.180			
00:00:02	-0.728	79.180			
00:00:02	-1.007	79.180			
00:00:02	-0.967	79.180			
00:00:02	-1.217	79.180			
00:00:02	-1.244	79.180			
00:00:02	-1.387	79.180			
00:00:02	-1.781	79.180			
00:00:02	-1.791	79.180			
00:00:02	-1.962	79.180			
00:00:02	-1.951	79.180			
00:00:02	-1.896	79.180			
00:00:02	-2.165	79.180			
00:00:02	-2.093	79.180			
00:00:02	-2.290	79.180			
00:00:02	-2.305	79.180			
00:00:02	-2.248	79.180			
00:00:02	-2.400	79.180			
00:00:02	-2.198	79.180			
00:00:02	-2.324	79.180			
00:00:02	-2.561	79.180			
00:00:02	-2.275	79.180			
00:00:02	-2.332	79.180			
00:00:02	-2.063	79.180			
00:00:02	-1.816	79.180			
00:00:02	-1.796	79.180			
00:00:02	-1.496	79.180			
00:00:03	-1.507	79.180			
00:00:03	-1.313	79.180			
00:00:03	-1.113	79.180			
00:00:03	-1.121	79.180			
00:00:03	-1.015	79.180			
00:00:03	-1.155	79.180			
00:00:03	-1.074	79.180			
00:00:03	-1.082	79.180			
00:00:03	-1.376	79.180			
00:00:03	-1.151	79.180			
00:00:03	-1.126	79.180			
00:00:03	-1.361	79.180			
00:00:03	-1.390	79.180			
00:00:03	-1.563	79.180			
00:00:03	-1.522	79.180			
00:00:03	-1.619	79.180			
00:00:03	-1.728	79.180			
00:00:03	-1.522	79.180			
00:00:03	-1.614	79.180			
00:00:03	-1.283	79.180			
00:00:03	-0.816	79.180			
00:00:03	-0.418	79.180			
00:00:03	0.745	79.180			
00:00:03	1.954	79.180			
00:00:03	3.626	79.180			
00:00:03	5.417	79.180			
00:00:03	7.031	79.180			
00:00:03	8.958	79.180			
00:00:03	10.459	79.180			
00:00:03	11.931	79.180			
00:00:03	13.134	79.180			
00:00:03	13.891	79.180			
00:00:03	14.765	79.180			
00:00:03	15.083	79.180			
00:00:03	15.037	79.180			
00:00:03	14.980	79.180			
00:00:03	14.564	79.180			
00:00:03	14.380	79.180			
00:00:03	13.942	79.180			
00:00:03	13.295	79.180			
00:00:03	12.830	79.180			
00:00:03	11.745	79.180			
00:00:03	10.867	79.180			
00:00:03	10.106	79.180			
00:00:03	9.243	73.143			
00:00:03	8.732	73.143			
00:00:03	7.790	73.143			
00:00:03	7.153	73.143			
00:00:03	6.518	73.148			
00:00:03	5.574	73.148			
00:00:03	4.827	73.148			
00:00:03	3.725	73.148			
00:00:03	2.856	73.148			
00:00:03	2.026	73.148			
00:00:03	0.998	73.148			
00:00:03	0.454	73.148			
00:00:03	-0.142	73.148			
00:00:03	-0.627	73.148			
00:00:03	-0.752	73.148			
00:00:03	-1.118	73.148			
00:00:03	-0.986	73.148			
00:00:03	-0.887	73.148			
00:00:03	-0.997	73.148			
00:00:03	-0.762	73.148			
00:00:03	-0.793	73.148			
00:00:03	-0.554	73.148			
00:00:03	-0.319	73.148			
00:00:03	-0.299	73.148			
00:00:03	-0.011	73.148			
00:00:03	0.051	73.148			
00:00:03	0.049	73.148			
00:00:03	0.022	73.148			
00:00:03	-0.237	73.148			
00:00:03	-0.182	73.148			
00:00:03	-0.340	73.148			
00:00:03	-0.501	73.148			
00:00:03	-0.340	73.148			
00:00:03	-0.680	73.148			
00:00:03	-0.613	73.148			
00:00:03	-0.776	73.148			
00:00:03	-1.017	73.148			
00:00:03	-1.032	73.148			
00:00:03	-1.413	73.148			
00:00:03	-1.625	73.148			
00:00:03	-1.752	73.148			
00:00:03	-1.852	73.148			
00:00:03	-1.675	73.148			
00:00:03	-1.843	73.148			
00:00:03	-1.871	73.148			
00:00:03	-1.981	73.148			
00:00:03	-2.272	73.148			
00:00:03	-2.020	73.148			
00:00:03	-2.082	73.148			
00:00:03	-2.063	73.148			
00:00:03	-2.039	73.148			
00:00:03	-2.297	73.148			
00:00:03	-1.930	73.148			
00:00:03	-1.871	73.148			
00:00:03	-1.898	73.148			
00:00:03	-1.785	73.148			
00:00:03	-2.141	73.148			
00:00:03	-2.027	73.148			
00:00:03	-2.008	73.148			
00:00:03	-2.094	73.148			
00:00:03	-1.806	73.148			
00:00:03	-1.784	73.148			
00:00:03	-1.676	73.148			
00:00:03	-1.533	73.148			
00:00:03	-1.525	73.148			
00:00:03	-1.257	73.148			
00:00:03	-1.218	73.148			
00:00:03	-0.997	73.148			
00:00:03	-0.815	73.148			
00:00:03	-1.074	73.148			
00:00:03	-0.955	73.148			
00:00:03	-1.175	73.148			
00:00:03	-1.277	73.148			
00:00:03	-1.150	73.148			
00:00:03	-1.453	73.148			
00:00:03	-1.469	73.148			
00:00:03	-1.765	73.148			
00:00:03	-1.902	73.148			
00:00:03	-1.670	73.148			
00:00:03	-1.721	73.148			
00:00:03	-1.521	73.148			
00:00:03	-1.415	73.148			
00:00:03	-1.233	73.148			
00:00:03	-0.469	73.148			
00:00:04	0.400	73.148			
00:00:04	1.708	73.148			
00:00:04	3.279	73.148			
00:00:04	4.755	73.148			
00:00:04	6.568	73.148			
00:00:04	8.196	73.148			
00:00:04	9.916	73.148			
00:00:04	11.412	73.148			
00:00:04	12.464	73.148			
00:00:04	13.636	73.148			
00:00:04	14.190	73.148			
00:00:04	14.519	73.148			
00:00:04	14.877	73.148			
00:00:04	14.603	73.148			
00:00:04	14.614	73.148			
00:00:04	14.161	73.148			
00:00:04	13.533	73.148			
00:00:04	13.127	73.148			
00:00:04	12.197	73.148			
00:00:04	11.624	73.148			
00:00:04	10.903	73.143			
00:00:04	9.859	73.143			
00:00:04	9.285	73.143			
00:00:04	8.456	73.143			
00:00:04	7.705	73.148			
00:00:04	7.075	73.148			
00:00:04	6.195	73.148			
00:00:04	5.461	73.148			
00:00:04	4.440	73.148			
00:00:04	3.488	73.148			
00:00:04	2.843	73.148			
00:00:04	1.871	73.148			
00:00:04	1.343	73.148			
00:00:04	0.576	73.148			
00:00:04	-0.145	73.148			
00:00:04	-0.596	73.148			
00:00:04	-1.207	73.148			
00:00:04	-1.285	73.148			
00:00:04	-1.294	73.148			
00:00:04	-1.423	73.148			
00:00:04	-1.181	73.148			
00:00:04	-1.199	73.148			
00:00:04	-0.800	73.148			
00:00:04	-0.480	73.148			
00:00:04	-0.498	73.148			
00:00:04	-0.249	73.148			
00:00:04	-0.206	73.148			
00:00:04	-0.067	73.148			
00:00:04	0.047	73.148			
00:00:04	-0.093	73.148			
00:00:04	0.085	73.148			
00:00:04	-0.143	73.148			
00:00:04	-0.410	73.148			
00:00:04	-0.425	73.148			
00:00:04	-0.705	73.148			
00:00:04	-0.701	73.148			
00:00:04	-0.847	73.148			
00:00:04	-1.120	73.148			
00:00:04	-1.175	73.148			
00:00:04	-1.594	73.148			
00:00:04	-1.665	73.148			
00:00:04	-1.719	73.148			
00:00:04	-1.973	73.148			
00:00:04	-2.017	73.148			
00:00:04	-2.303	73.148			
00:00:04	-2.318	73.148			
00:00:04	-2.358	73.148			
00:00:04	-2.540	73.148			
00:00:04	-2.438	73.148			
00:00:04	-2.610	73.148			
00:00:04	-2.516	73.148			
00:00:04	-2.353	73.148			
00:00:04	-2.588	73.148			
00:00:04	-2.534	73.148			
00:00:04	-2.524	73.148			
00:00:04	-2.385	73.148			
00:00:04	-2.185	73.148			
00:00:04	-2.338	73.148			
00:00:04	-2.163	73.148			
00:00:04	-2.158	73.148			
00:00:04	-2.105	73.148			
00:00:04	-1.876	73.148			
00:00:04	-1.959	73.148			
00:00:04	-1.756	73.148			
00:00:04	-1.655	73.148			
00:00:04	-1.683	73.148			
00:00:04	-1.338	73.148			
00:00:04	-1.436	73.148			
00:00:04	-1.325	73.148			
00:00:04	-1.110	73.148			
00:00:04	-1.318	73.148			
00:00:04	-1.022	73.148			
00:00:04	-0.988	73.148			
00:00:04	-0.979	73.148			
00:00:04	-0.863	73.148			
00:00:04	-1.178	73.148			
00:00:04	-1.099	73.148			
00:00:04	-1.321	73.148			
00:00:04	-1.516	73.148			
00:00:04	-1.377	73.148			
00:00:04	-1.697	73.148			
00:00:04	-1.800	73.148			
00:00:04	-1.722	73.148			
00:00:04	-1.758	73.148			
00:00:04	-1.263	73.148			
00:00:04	-1.016	73.148			
00:00:04	-0.396	73.148			
00:00:04	0.431	73.148			
00:00:04	1.236	73.148			
00:00:04	2.794	73.148			
00:00:04	4.215	73.148			
00:00:04	5.944	73.148			
00:00:04	7.818	73.148			
00:00:04	9.257	73.148			
00:00:04	10.990	73.148			
00:00:04	12.272	73.148			
00:00:04	13.354	73.148			
00:00:04	14.339	73.148			
00:00:04	14.458	73.148			
00:00:04	14.727	73.148			
00:00:04	14.495	73.148			
00:00:04	14.037	73.148			
00:00:04	13.766	73.148			
00:00:04	12.979	73.148			
00:00:04	12.649	73.148			
00:00:04	12.119	73.148			
00:00:04	11.133	73.148			
00:00:04	10.683	73.148			
00:00:05	9.785	71.776			
00:00:05	9.117	71.776			
00:00:05	8.477	71.776			
00:00:05	7.568	71.776			
00:00:05	6.983	71.781			
00:00:05	6.078	71.781			
00:00:05	5.118	71.781			
00:00:05	4.212	71.781			
00:00:05	3.251	71.781			
00:00:05	2.624	71.781			
00:00:05	1.819	71.781			
00:00:05	1.107	71.781			
00:00:05	0.607	71.781			
00:00:05	-0.098	71.781			
00:00:05	-0.385	71.781			
00:00:05	-0.619	71.781			
00:00:05	-0.842	71.781			
00:00:05	-0.723	71.781			
00:00:05	-0.953	71.781			
00:00:05	-0.787	71.781			
00:00:05	-0.640	71.781			
00:00:05	-0.581	71.781			
00:00:05	-0.175	71.781			
00:00:05	-0.105	71.781			
00:00:05	0.095	71.781			
00:00:05	0.362	71.781			
00:00:05	0.250	71.781			
00:00:05	0.421	71.781			
00:00:05	0.144	71.781			
00:00:05	0.075	71.781			
00:00:05	0.284	71.781			
00:00:05	-0.027	71.781			
00:00:05	-0.049	71.781			
00:00:05	-0.399	71.781			
00:00:05	-0.725	71.781			
00:00:05	-0.693	71.781			
00:00:05	-0.861	71.781			
00:00:05	-0.970	71.781			
00:00:05	-1.199	71.781			
00:00:05	-1.684	71.781			
00:00:05	-1.754	71.781			
00:00:05	-2.083	71.781			
00:00:05	-2.153	71.781			
00:00:05	-2.243	71.781			
00:00:05	-2.521	71.781			
00:00:05	-2.285	71.781			
00:00:05	-2.364	71.781			
00:00:05	-2.282	71.781			
00:00:05	-2.097	71.781			
00:00:05	-2.166	71.781			
00:00:05	-2.081	71.781			
00:00:05	-2.148	71.781			
00:00:05	-2.183	71.781			
00:00:05	-2.060	71.781			
00:00:05	-2.290	71.781			
00:00:05	-2.071	71.781			
00:00:05	-2.054	71.781			
00:00:05	-2.019	71.781			
00:00:05	-1.525	71.781			
00:00:05	-1.513	71.781			
00:00:05	-1.211	71.781			
00:00:05	-0.959	71.781			
00:00:05	-0.958	71.781			
00:00:05	-0.706	71.781			
00:00:05	-0.780	71.781			
00:00:05	-0.657	71.781			
00:00:05	-0.565	71.781			
00:00:05	-0.764	71.781			
00:00:05	-0.536	71.781			
00:00:05	-0.654	71.781			
00:00:05	-0.667	71.781			
00:00:05	-0.511	71.781			
00:00:05	-0.864	71.781			
00:00:05	-0.913	71.781			
00:00:05	-1.143	71.781			
00:00:05	-1.293	71.781			
00:00:05	-1.052	71.781			
00:00:05	-1.286	71.781			
00:00:05	-1.330	71.781			
00:00:05	-1.429	71.781			
00:00:05	-1.485	71.781			
00:00:05	-1.151	71.781			
00:00:05	-0.876	71.781			
00:00:05	-0.148	71.781			
00:00:05	0.750	71.781			
00:00:05	1.712	71.781			
00:00:05	3.289	71.781			
00:00:05	4.754	71.781			
00:00:05	6.365	71.781			
00:00:05	8.078	71.781			
00:00:05	9.498	71.781			
00:00:05	10.928	71.781			
00:00:05	11.832	71.781			
00:00:05	12.621	71.781			
00:00:05	13.288	71.781			
00:00:05	13.529	71.781			
00:00:05	13.883	71.781			
00:00:05	13.765	71.781			
00:00:05	13.495	71.781			
00:00:05	13.285	71.781			
00:00:05	12.463	71.781			
00:00:05	11.951	71.781			
00:00:05	11.315	71.781			
00:00:05	10.497	71.781			
00:00:05	10.031	73.143			
00:00:05	9.090	73.143			
00:00:05	8.355	73.143			
00:00:05	7.643	73.143			
00:00:05	6.812	73.148			
00:00:05	6.302	73.148			
00:00:05	5.532	73.148			
00:00:05	4.705	73.148			
00:00:05	3.843	73.148			
00:00:05	2.683	73.148			
00:00:05	1.785	73.148			
00:00:05	0.818	73.148			
00:00:05	-0.031	73.148			
00:00:05	-0.403	73.148			
00:00:05	-1.113	73.148			
00:00:05	-1.430	73.148			
00:00:05	-1.621	73.148			
00:00:05	-1.771	73.148			
00:00:05	-1.369	73.148			
00:00:05	-1.281	73.148			
00:00:05	-0.934	73.148			
00:00:05	-0.714	73.148			
00:00:05	-0.551	73.148			
00:00:05	-0.059	73.148			
00:00:06	-0.121	73.148			
00:00:06	-0.055	73.148			
00:00:06	0.104	73.148			
00:00:06	-0.020	73.148			
00:00:06	0.085	73.148			
00:00:06	-0.138	73.148			
00:00:06	-0.388	73.148			
00:00:06	-0.360	73.148			
00:00:06	-0.723	73.148			
00:00:06	-0.688	73.148			
00:00:06	-0.920	73.148			
00:00:06	-1.349	73.148			
00:00:06	-1.419	73.148			
00:00:06	-1.683	73.148			
00:00:06	-1.676	73.148			
00:00:06	-1.801	73.148			
00:00:06	-2.031	73.148			
00:00:06	-1.989	73.148			
00:00:06	-2.312	73.148			
00:00:06	-2.403	73.148			
00:00:06	-2.326	73.148			
00:00:06	-2.415	73.148			
00:00:06	-2.232	73.148			
00:00:06	-2.485	73.148			
00:00:06	-2.503	73.148			
00:00:06	-2.339	73.148			
00:00:06	-2.511	73.148			
00:00:06	-2.261	73.148			
00:00:06	-2.079	73.148			
00:00:06	-1.951	73.148			
00:00:06	-1.875	73.148			
00:00:06	-2.173	73.148			
00:00:06	-1.917	73.148			
00:00:06	-1.849	73.148			
00:00:06	-1.777	73.148			
00:00:06	-1.533	73.148			
00:00:06	-1.741	73.148			
00:00:06	-1.580	73.148			
00:00:06	-1.483	73.148			
00:00:06	-1.458	73.148			
00:00:06	-1.031	73.148			
00:00:06	-1.072	73.148			
00:00:06	-1.073	73.148			
00:00:06	-1.129	73.148			
00:00:06	-1.494	73.148			
00:00:06	-1.328	73.148			
00:00:06	-1.421	73.148			
00:00:06	-1.471	73.148			
00:00:06	-1.366	73.148			
00:00:06	-1.723	73.148			
00:00:06	-1.706	73.148			
00:00:06	-1.843	73.148			
00:00:06	-1.844	73.148			
00:00:06	-1.615	73.148			
00:00:06	-1.846	73.148			
00:00:06	-1.836	73.148			
00:00:06	-1.959	73.148			
00:00:06	-1.893	73.148			
00:00:06	-1.264	73.148			
00:00:06	-0.932	73.148			
00:00:06	-0.109	73.148			
00:00:06	0.926	73.148			
00:00:06	1.995	73.148			
00:00:06	3.668	73.148			
00:00:06	5.352	73.148			
00:00:06	7.213	73.148			
00:00:06	9.053	73.148			
00:00:06	10.436	73.148			
00:00:06	12.101	73.148			
00:00:06	13.094	73.148			
00:00:06	13.898	73.148			
00:00:06	14.705	73.148			
00:00:06	15.062	73.148			
00:00:06	15.543	73.148			
00:00:06	15.536	73.148			
00:00:06	15.194	73.148			
00:00:06	14.921	73.148			
00:00:06	14.180	73.148			
00:00:06	13.621	73.148			
00:00:06	13.034	73.148			
00:00:06	12.154	73.148			
00:00:06	11.499	73.148			
00:00:06	10.556	73.148			
00:00:06	9.752	73.148			
00:00:06	9.123	73.143			
00:00:06	8.307	73.143			
00:00:06	7.860	73.143			
00:00:06	6.963	73.143			
00:00:06	6.058	73.148			
00:00:06	5.064	73.148			
00:00:06	3.857	73.148			
00:00:06	3.103	73.148			
00:00:06	2.089	73.148			
00:00:06	1.179	73.148			
00:00:06	0.507	73.148			
00:00:06	-0.365	73.148			
00:00:06	-0.749	73.148			
00:00:06	-1.054	73.148			
00:00:06	-1.312	73.148			
00:00:06	-1.255	73.148			
00:00:06	-1.488	73.148			
00:00:06	-1.409	73.148			
00:00:06	-1.341	73.148			
00:00:06	-1.227	73.148			
00:00:06	-0.771	73.148			
00:00:06	-0.865	73.148			
00:00:06	-0.736	73.148			
00:00:06	-0.543	73.148			
00:00:06	-0.641	73.148			
00:00:06	-0.517	73.148			
00:00:06	-0.613	73.148			
00:00:06	-0.546	73.148			
00:00:06	-0.563	73.148			
00:00:06	-0.794	73.148			
00:00:06	-0.768	73.148			
00:00:06	-0.854	73.148			
00:00:06	-0.880	73.148			
00:00:06	-0.843	73.148			
00:00:06	-1.349	73.148			
00:00:06	-1.561	73.148			
00:00:06	-1.512	73.148			
00:00:06	-1.654	73.148			
00:00:06	-1.632	73.148			
00:00:06	-1.925	73.148			
00:00:06	-1.855	73.148			
00:00:06	-1.943	73.148			
00:00:06	-2.201	73.148			
00:00:06	-1.992	73.148			
00:00:07	-2.188	73.148			
00:00:07	-2.416	73.148			
00:00:07	-2.464	73.148			
00:00:07	-2.686	73.148			
00:00:07	-2.403	73.148			
00:00:07	-2.389	73.148			
00:00:07	-2.367	73.148			
00:00:07	-2.232	73.148			
00:00:07	-2.541	73.148			
00:00:07	-2.370	73.148			
00:00:07	-2.350	73.148			
00:00:07	-2.223	73.148			
00:00:07	-1.944	73.148			
00:00:07	-2.074	73.148			
00:00:07	-1.794	73.148			
00:00:07	-1.645	73.148			
00:00:07	-1.810	73.148			
00:00:07	-1.653	73.148			
00:00:07	-1.729	73.148			
00:00:07	-1.525	73.148			
00:00:07	-1.363	73.148			
00:00:07	-1.384	73.148			
00:00:07	-1.244	73.148			
00:00:07	-1.357	73.148			
00:00:07	-1.342	73.148			
00:00:07	-1.169	73.148			
00:00:07	-1.362	73.148			
00:00:07	-1.374	73.148			
00:00:07	-1.626	73.148			
00:00:07	-1.975	73.148			
00:00:07	-1.861	73.148			
00:00:07	-2.094	73.148			
00:00:07	-2.030	73.148			
00:00:07	-2.170	73.148			
00:00:07	-2.270	73.148			
00:00:07	-2.018	73.148			
00:00:07	-2.138	73.148			
00:00:07	-1.719	73.148			
00:00:07	-1.104	73.148			
00:00:07	-0.506	73.148			
00:00:07	0.682	73.148			
00:00:07	1.804	73.148			
00:00:07	3.433	73.148			
00:00:07	5.291	73.148			
00:00:07	6.989	73.148			
00:00:07	9.030	73.148			
00:00:07	10.563	73.148			
00:00:07	12.040	73.148			
00:00:07	13.338	73.148			
00:00:07	14.042	73.148			
00:00:07	14.855	73.148			
00:00:07	15.248	73.148			
00:00:07	15.376	73.148			
00:00:07	15.430	73.148			
00:00:07	14.935	73.148			
00:00:07	14.560	73.148			
00:00:07	13.955	73.148			
00:00:07	13.168	73.148			
00:00:07	12.546	73.148			
00:00:07	11.539	73.148			
00:00:07	10.689	71.776			
00:00:07	10.009	71.776			
00:00:07	9.236	71.776			
00:00:07	8.729	71.776			
00:00:07	7.897	71.781			
00:00:07	7.241	71.781			
00:00:07	6.694	71.781			
00:00:07	5.764	71.781			
00:00:07	5.186	71.781			
00:00:07	4.233	71.781			
00:00:07	3.221	71.781			
00:00:07	2.330	71.781			
00:00:07	1.257	71.781			
00:00:07	0.605	71.781			
00:00:07	-0.122	71.781			
00:00:07	-0.624	71.781			
00:00:07	-0.868	71.781			
00:00:07	-1.384	71.781			
00:00:07	-1.369	71.781			
00:00:07	-1.280	71.781			
00:00:07	-1.234	71.781			
00:00:07	-0.888	71.781			
00:00:07	-0.840	71.781			
00:00:07	-0.497	71.781			
00:00:07	-0.284	71.781			
00:00:07	-0.245	71.781			
00:00:07	0.039	71.781			
00:00:07	-0.124	71.781			
00:00:07	-0.079	71.781			
00:00:07	0.088	71.781			
00:00:07	-0.254	71.781			
00:00:07	-0.231	71.781			
00:00:07	-0.414	71.781			
00:00:07	-0.615	71.781			
00:00:07	-0.656	71.781			
00:00:07	-1.071	71.781			
00:00:07	-1.020	71.781			
00:00:07	-1.229	71.781			
00:00:07	-1.484	71.781			
00:00:07	-1.521	71.781			
00:00:07	-1.890	71.781			
00:00:07	-1.925	71.781			
00:00:07	-2.076	71.781			
00:00:07	-2.474	71.781			
00:00:07	-2.454	71.781			
00:00:07	-2.766	71.781			
00:00:07	-2.898	71.781			
00:00:07	-2.806	71.781			
00:00:07	-2.890	71.781			
00:00:07	-2.782	71.781			
00:00:07	-2.959	71.781			
00:00:07	-2.878	71.781			
00:00:07	-2.634	71.781			
00:00:07	-2.871	71.781			
00:00:07	-2.678	71.781			
00:00:07	-2.606	71.781			
00:00:07	-2.648	71.781			
00:00:07	-2.447	71.781			
00:00:07	-2.586	71.781			
00:00:07	-2.300	71.781			
00:00:07	-2.216	71.781			
00:00:07	-2.220	71.781			
00:00:07	-1.923	71.781			
00:00:07	-1.861	71.781			
00:00:07	-1.510	71.781			
00:00:07	-1.189	71.781			
00:00:07	-1.210	71.781			
00:00:07	-1.121	71.781			
00:00:08	-1.272	71.781			
00:00:08	-1.202	71.781			
00:00:08	-1.058	71.781			
00:00:08	-1.147	71.781			
00:00:08	-1.119	71.781			
00:00:08	-1.334	71.781			
00:00:08	-1.485	71.781			
00:00:08	-1.474	71.781			
00:00:08	-1.835	71.781			
00:00:08	-1.803	71.781			
00:00:08	-1.897	71.781			
00:00:08	-1.937	71.781			
00:00:08	-1.694	71.781			
00:00:08	-1.813	71.781			
00:00:08	-1.789	71.781			
00:00:08	-1.917	71.781			
00:00:08	-2.080	71.781			
00:00:08	-1.735	71.781			
00:00:08	-1.368	71.781			
00:00:08	-0.364	71.781			
00:00:08	0.984	71.781			
00:00:08	2.288	71.781			
00:00:08	4.082	71.781			
00:00:08	5.804	71.781			
00:00:08	7.575	71.781			
00:00:08	9.477	71.781			
00:00:08	10.996	71.781			
00:00:08	12.684	71.781			
00:00:08	13.846	71.781			
00:00:08	14.625	71.781			
00:00:08	15.319	71.781			
00:00:08	15.446	71.781			
00:00:08	15.727	71.781			
00:00:08	15.634	71.781			
00:00:08	15.178	71.781			
00:00:08	14.924	71.781			
00:00:08	13.972	71.781			
00:00:08	13.233	71.781			
00:00:08	12.453	71.781			
00:00:08	11.509	71.781			
00:00:08	10.972	71.111			
00:00:08	9.997	71.111			
00:00:08	9.277	71.111			
00:00:08	8.759	71.111			
00:00:08	7.919	71.116			
00:00:08	7.366	71.116			
00:00:08	6.438	71.116			
00:00:08	5.548	71.116			
00:00:08	4.714	71.116			
00:00:08	3.690	71.116			
00:00:08	3.053	71.116			
00:00:08	2.106	71.116			
00:00:08	1.245	71.116			
00:00:08	0.779	71.116			
00:00:08	0.017	71.116			
00:00:08	-0.241	71.116			
00:00:08	-0.624	71.116			
00:00:08	-0.873	71.116			
00:00:08	-0.727	71.116			
00:00:08	-0.764	71.116			
00:00:08	-0.572	71.116			
00:00:08	-0.464	71.116			
00:00:08	-0.481	71.116			
00:00:08	-0.169	71.116			
00:00:08	-0.228	71.116			
00:00:08	-0.307	71.116			
00:00:08	-0.081	71.116			
00:00:08	-0.325	71.116			
00:00:08	-0.165	71.116			
00:00:08	-0.277	71.116			
00:00:08	-0.405	71.116			
00:00:08	-0.445	71.116			
00:00:08	-0.839	71.116			
00:00:08	-0.878	71.116			
00:00:08	-0.934	71.116			
00:00:08	-1.152	71.116			
00:00:08	-1.166	71.116			
00:00:08	-1.442	71.116			
00:00:08	-1.471	71.116			
00:00:08	-1.526	71.116			
00:00:08	-1.741	71.116			
00:00:08	-1.603	71.116			
00:00:08	-1.940	71.116			
00:00:08	-2.089	71.116			
00:00:08	-2.110	71.116			
00:00:08	-2.441	71.116			
00:00:08	-2.380	71.116			
00:00:08	-2.519	71.116			
00:00:08	-2.500	71.116			
00:00:08	-2.225	71.116			
00:00:08	-2.230	71.116			
00:00:08	-2.001	71.116			
00:00:08	-2.087	71.116			
00:00:08	-2.050	71.116			
00:00:08	-1.894	71.116			
00:00:08	-2.067	71.116			
00:00:08	-1.926	71.116			
00:00:08	-1.826	71.116			
00:00:08	-1.816	71.116			
00:00:08	-1.453	71.116			
00:00:08	-1.466	71.116			
00:00:08	-1.151	71.116			
00:00:08	-1.017	71.116			
00:00:08	-1.029	71.116			
00:00:08	-0.810	71.116			
00:00:08	-0.832	71.116			
00:00:08	-0.663	71.116			
00:00:08	-0.567	71.116			
00:00:08	-0.848	71.116			
00:00:08	-0.713	71.116			
00:00:08	-0.981	71.116			
00:00:08	-1.176	71.116			
00:00:08	-1.033	71.116			
00:00:08	-1.207	71.116			
00:00:08	-1.003	71.116			
00:00:08	-1.181	71.116			
00:00:08	-1.471	71.116			
00:00:08	-1.536	71.116			
00:00:08	-1.764	71.116			
00:00:08	-1.611	71.116			
00:00:08	-1.603	71.116			
00:00:08	-1.537	71.116			
00:00:08	-1.316	71.116			
00:00:08	-1.363	71.116			
00:00:08	-0.807	71.116			
00:00:08	-0.124	71.116			
00:00:08	0.630	71.116			
00:00:08	2.025	71.116			
00:00:09	3.329	71.116			
00:00:09	5.071	71.116			
00:00:09	6.841	71.116			
00:00:09	8.367	71.116			
00:00:09	10.222	71.116			
00:00:09	11.715	71.116			
00:00:09	13.039	71.116			
00:00:09	14.134	71.116			
00:00:09	14.631	71.116			
00:00:09	15.088	71.116			
00:00:09	15.106	71.116			
00:00:09	14.899	71.116			
00:00:09	14.704	71.116			
00:00:09	14.082	71.116			
00:00:09	13.671	71.116			
00:00:09	13.097	71.116			
00:00:09	12.320	71.116			
00:00:09	11.749	71.116			
00:00:09	10.807	71.116			
00:00:09	10.028	71.116			
00:00:09	9.411	72.453			
00:00:09	8.506	72.453			
00:00:09	7.914	72.453			
00:00:09	7.013	72.453			
00:00:09	6.104	72.458			
00:00:09	5.459	72.458			
00:00:09	4.300	72.458			
00:00:09	3.528	72.458			
00:00:09	2.674	72.458			
00:00:09	1.837	72.458			
00:00:09	0.979	72.458			
00:00:09	-0.029	72.458			
00:00:09	-0.305	72.458			
00:00:09	-0.511	72.458			
00:00:09	-0.953	72.458			
00:00:09	-1.050	72.458			
00:00:09	-1.172	72.458			
00:00:09	-0.905	72.458			
00:00:09	-0.625	72.458			
00:00:09	-0.576	72.458			
00:00:09	-0.072	72.458			
00:00:09	-0.015	72.458			
00:00:09	0.160	72.458			
00:00:09	0.250	72.458			
00:00:09	0.120	72.458			
00:00:09	0.190	72.458			
00:00:09	0.008	72.458			
00:00:09	0.062	72.458			
00:00:09	0.285	72.458			
00:00:09	-0.041	72.458			
00:00:09	-0.127	72.458			
00:00:09	-0.355	72.458			
00:00:09	-0.574	72.458			
00:00:09	-0.562	72.458			
00:00:09	-0.925	72.458			
00:00:09	-0.820	72.458			
00:00:09	-0.899	72.458			
00:00:09	-1.169	72.458			
00:00:09	-1.323	72.458			
00:00:09	-1.789	72.458			
00:00:09	-1.780	72.458			
00:00:09	-1.895	72.458			
00:00:09	-2.256	72.458			
00:00:09	-2.233	72.458			
00:00:09	-2.445	72.458			
00:00:09	-2.454	72.458			
00:00:09	-2.410	72.458			
00:00:09	-2.513	72.458			
00:00:09	-2.429	72.458			
00:00:09	-2.743	72.458			
00:00:09	-2.891	72.458			
00:00:09	-2.752	72.458			
00:00:09	-2.634	72.458			
00:00:09	-2.221	72.458			
00:00:09	-2.063	72.458			
00:00:09	-1.971	72.458			
00:00:09	-1.594	72.458			
00:00:09	-1.505	72.458			
00:00:09	-1.099	72.458			
00:00:09	-0.819	72.458			
00:00:09	-0.865	72.458			
00:00:09	-0.500	72.458			
00:00:09	-0.488	72.458			
00:00:09	-0.324	72.458			
00:00:09	-0.327	72.458			
00:00:09	-0.539	72.458			
00:00:09	-0.384	72.458			
00:00:09	-0.535	72.458			
00:00:09	-0.594	72.458			
00:00:09	-0.433	72.458			
00:00:09	-0.779	72.458			
00:00:09	-0.837	72.458			
00:00:09	-0.941	72.458			
00:00:09	-1.012	72.458			
00:00:09	-0.838	72.458			
00:00:09	-0.977	72.458			
00:00:09	-1.054	72.458			
00:00:09	-1.191	72.458			
00:00:09	-1.364	72.458			
00:00:09	-1.077	72.458			
00:00:09	-0.791	72.458			
00:00:09	0.084	72.458			
00:00:09	1.141	72.458			
00:00:09	2.319	72.458			
00:00:09	4.154	72.458			
00:00:09	5.695	72.458			
00:00:09	7.520	72.458			
00:00:09	9.251	72.458			
00:00:09	10.544	72.458			
00:00:09	12.094	72.458			
00:00:09	13.050	72.458			
00:00:09	13.893	72.458			
00:00:09	14.821	72.458			
00:00:09	15.065	72.458			
00:00:09	15.318	72.458			
00:00:09	15.151	72.458			
00:00:09	14.863	72.458			
00:00:09	14.569	72.458			
00:00:09	13.850	72.458			
00:00:09	13.278	72.458			
00:00:09	12.481	72.458			
00:00:09	11.660	72.458			
00:00:09	11.205	72.458			
00:00:09	10.422	72.458			
00:00:09	9.931	73.846			
00:00:09	9.282	73.846			
00:00:09	8.397	73.846			
00:00:09	7.683	73.846			
00:00:10	6.745	73.851			
00:00:10	5.878	73.851			
00:00:10	5.130	73.851			
00:00:10	4.195	73.851			
00:00:10	3.533	73.851			
00:00:10	2.671	73.851			
00:00:10	1.921	73.851			
00:00:10	1.413	73.851			
00:00:10	0.579	73.851			
00:00:10	0.189	73.851			
00:00:10	-0.189	73.851			
00:00:10	-0.446	73.851			
00:00:10	-0.401	73.851			
00:00:10	-0.526	73.851			
00:00:10	-0.269	73.851			
00:00:10	-0.151	73.851			
00:00:10	-0.247	73.851			
00:00:10	-0.078	73.851			
00:00:10	-0.327	73.851			
00:00:10	-0.253	73.851			
00:00:10	-0.195	73.851			
00:00:10	-0.287	73.851			
00:00:10	-0.232	73.851			
00:00:10	-0.514	73.851			
00:00:10	-0.590	73.851			
00:00:10	-0.517	73.851			
00:00:10	-0.778	73.851			
00:00:10	-0.664	73.851			
00:00:10	-0.782	73.851			
00:00:10	-0.982	73.851			
00:00:10	-1.066	73.851			
00:00:10	-1.405	73.851			
00:00:10	-1.448	73.851			
00:00:10	-1.663	73.851			
00:00:10	-1.877	73.851			
00:00:10	-1.798	73.851			
00:00:10	-2.008	73.851			
00:00:10	-1.903	73.851			
00:00:10	-1.806	73.851			
00:00:10	-1.897	73.851			
00:00:10	-1.809	73.851			
00:00:10	-2.004	73.851			
00:00:10	-1.961	73.851			
00:00:10	-1.779	73.851			
00:00:10	-1.930	73.851			
00:00:10	-1.771	73.851			
00:00:10	-1.780	73.851			
00:00:10	-1.711	73.851			
00:00:10	-1.508	73.851			
00:00:10	-1.746	73.851			
00:00:10	-1.644	73.851			
00:00:10	-1.760	73.851			
00:00:10	-1.759	73.851			
00:00:10	-1.370	73.851			
00:00:10	-1.454	73.851			
00:00:10	-1.128	73.851			
00:00:10	-1.027	73.851			
00:00:10	-1.291	73.851			
00:00:10	-1.125	73.851			
00:00:10	-1.130	73.851			
00:00:10	-0.872	73.851			
00:00:10	-0.638	73.851			
00:00:10	-0.807	73.851			
00:00:10	-0.627	73.851			
00:00:10	-0.807	73.851			
00:00:10	-0.884	73.851			
00:00:10	-0.687	73.851			
00:00:10	-0.885	73.851			
00:00:10	-0.738	73.851			
00:00:10	-0.858	73.851			
00:00:10	-1.182	73.851			
00:00:10	-1.243	73.851			
00:00:10	-1.593	73.851			
00:00:10	-1.610	73.851			
00:00:10	-1.714	73.851			
00:00:10	-1.932	73.851			
00:00:10	-1.553	73.851			
00:00:10	-1.469	73.851			
00:00:10	-0.951	73.851			
00:00:10	-0.304	73.851			
00:00:10	0.530	73.851			
00:00:10	2.048	73.851			
00:00:10	3.488	73.851			
00:00:10	5.386	73.851			
00:00:10	7.201	73.851			
00:00:10	8.667	73.851			
00:00:10	10.590	73.851			
00:00:10	12.128	73.851			
00:00:10	13.489	73.851			
00:00:10	14.745	73.851			
00:00:10	15.376	73.851			
00:00:10	15.859	73.851			
00:00:10	15.761	73.851			
00:00:10	15.620	73.851			
00:00:10	15.628	73.851			
00:00:10	14.974	73.851			
00:00:10	14.585	73.851			
00:00:10	13.916	73.851			
00:00:10	13.083	73.851			
00:00:10	12.535	73.851			
00:00:10	11.707	73.851			
00:00:10	11.172	73.851			
00:00:10	10.539	73.851			
00:00:10	9.733	73.851			
00:00:10	9.326	71.776			
00:00:10	8.559	71.776			
00:00:10	7.770	71.776			
00:00:10	6.915	71.776			
00:00:10	5.627	71.781			
00:00:10	4.759	71.781			
00:00:10	3.716	71.781			
00:00:10	2.728	71.781			
00:00:10	1.889	71.781			
00:00:10	0.855	71.781			
00:00:10	0.204	71.781			
00:00:10	-0.523	71.781			
00:00:10	-1.047	71.781			
00:00:10	-1.011	71.781			
00:00:10	-1.165	71.781			
00:00:10	-1.046	71.781			
00:00:10	-1.076	71.781			
00:00:10	-1.156	71.781			
00:00:10	-0.889	71.781			
00:00:10	-0.979	71.781			
00:00:10	-0.863	71.781			
00:00:10	-0.677	71.781			
00:00:10	-0.704	71.781			
00:00:10	-0.375	71.781			
00:00:11	-0.303	71.781			
00:00:11	-0.310	71.781			
00:00:11	-0.326	71.781			
00:00:11	-0.549	71.781			
00:00:11	-0.496	71.781			
00:00:11	-0.671	71.781			
00:00:11	-0.967	71.781			
00:00:11	-1.127	71.781			
00:00:11	-1.523	71.781			
00:00:11	-1.562	71.781			
00:00:11	-1.716	71.781			
00:00:11	-1.898	71.781			
00:00:11	-1.607	71.781			
00:00:11	-1.822	71.781			
00:00:11	-1.938	71.781			
00:00:11	-2.035	71.781			
00:00:11	-2.294	71.781			
00:00:11	-2.128	71.781			
00:00:11	-2.177	71.781			
00:00:11	-2.063	71.781			
00:00:11	-2.031	71.781			
00:00:11	-2.120	71.781			
00:00:11	-1.718	71.781			
00:00:11	-1.640	71.781			
00:00:11	-1.574	71.781			
00:00:11	-1.385	71.781			
00:00:11	-1.619	71.781			
00:00:11	-1.351	71.781			
00:00:11	-1.298	71.781			
00:00:11	-1.311	71.781			
00:00:11	-1.011	71.781			
00:00:11	-1.173	71.781			
00:00:11	-1.048	71.781			
00:00:11	-0.942	71.781			
00:00:11	-0.933	71.781			
00:00:11	-0.642	71.781			
00:00:11	-0.703	71.781			
00:00:11	-0.529	71.781			
00:00:11	-0.384	71.781			
00:00:11	-0.503	71.781			
00:00:11	-0.313	71.781			
00:00:11	-0.342	71.781			
00:00:11	-0.402	71.781			
00:00:11	-0.285	71.781			
00:00:11	-0.443	71.781			
00:00:11	-0.306	71.781			
00:00:11	-0.561	71.781			
00:00:11	-0.825	71.781			
00:00:11	-0.759	71.781			
00:00:11	-1.026	71.781			
00:00:11	-0.844	71.781			
00:00:11	-0.833	71.781			
00:00:11	-1.020	71.781			
00:00:11	-0.944	71.781			
00:00:11	-1.308	71.781			
00:00:11	-1.284	71.781			
00:00:11	-1.312	71.781			
00:00:11	-1.430	71.781			
00:00:11	-1.279	71.781			
00:00:11	-1.328	71.781			
00:00:11	-0.803	71.781			
00:00:11	-0.141	71.781			
00:00:11	0.598	71.781			
00:00:11	2.198	71.781			
00:00:11	3.796	71.781			
00:00:11	5.541	71.781			
00:00:11	7.392	71.781			
00:00:11	8.990	71.781			
00:00:11	10.838	71.781			
00:00:11	12.289	71.781			
00:00:11	13.478	71.781			
00:00:11	14.547	71.781			
00:00:11	15.098	71.781			
00:00:11	15.510	71.781			
00:00:11	15.645	71.781			
00:00:11	15.446	71.781			
00:00:11	15.389	71.781			
00:00:11	14.697	71.781			
00:00:11	14.173	71.781			
00:00:11	13.496	71.781			
00:00:11	12.510	71.781			
00:00:11	11.916	71.781			
00:00:11	11.006	71.781			
00:00:11	10.303	71.781			
00:00:11	9.775	70.459			
00:00:11	9.031	70.459			
00:00:11	8.458	70.459			
00:00:11	7.679	70.459			
00:00:11	6.879	70.464			
00:00:11	6.113	70.464			
00:00:11	5.163	70.464			
00:00:11	4.403	70.464			
00:00:11	3.276	70.464			
00:00:11	2.181	70.464			
00:00:11	1.505	70.464			
00:00:11	0.570	70.464			
00:00:11	0.094	70.464			
00:00:11	-0.239	70.464			
00:00:11	-0.740	70.464			
00:00:11	-0.908	70.464			
00:00:11	-1.179	70.464			
00:00:11	-1.101	70.464			
00:00:11	-1.000	70.464			
00:00:11	-1.124	70.464			
00:00:11	-0.728	70.464			
00:00:11	-0.495	70.464			
00:00:11	-0.278	70.464			
00:00:11	-0.037	70.464			
00:00:11	0.015	70.464			
00:00:11	0.413	70.464			
00:00:11	0.282	70.464			
00:00:11	0.056	70.464			
00:00:11	0.039	70.464			
00:00:11	-0.135	70.464			
00:00:11	-0.045	70.464			
00:00:11	-0.154	70.464			
00:00:11	-0.316	70.464			
00:00:11	-0.352	70.464			
00:00:11	-0.794	70.464			
00:00:11	-0.950	70.464			
00:00:11	-1.172	70.464			
00:00:11	-1.382	70.464			
00:00:11	-1.391	70.464			
00:00:11	-1.593	70.464			
00:00:11	-1.661	70.464			
00:00:11	-1.777	70.464			
00:00:11	-2.200	70.464			
00:00:11	-1.990	70.464			
00:00:12	-2.071	70.464			
00:00:12	-2.115	70.464			
00:00:12	-2.102	70.464			
00:00:12	-2.189	70.464			
00:00:12	-1.929	70.464			
00:00:12	-1.908	70.464			
00:00:12	-1.754	70.464			
00:00:12	-1.479	70.464			
00:00:12	-1.598	70.464			
00:00:12	-1.500	70.464			
00:00:12	-1.574	70.464			
00:00:12	-1.554	70.464			
00:00:12	-1.105	70.464			
00:00:12	-1.304	70.464			
00:00:12	-1.115	70.464			
00:00:12	-0.942	70.464			
00:00:12	-1.093	70.464			
00:00:12	-0.714	70.464			
00:00:12	-0.834	70.464			
00:00:12	-0.863	70.464			
00:00:12	-0.778	70.464			
00:00:12	-0.984	70.464			
00:00:12	-0.782	70.464			
00:00:12	-0.877	70.464			
00:00:12	-1.025	70.464			
00:00:12	-1.089	70.464			
00:00:12	-1.352	70.464			
00:00:12	-1.157	70.464			
00:00:12	-1.161	70.464			
00:00:12	-1.334	70.464			
00:00:12	-1.339	70.464			
00:00:12	-1.707	70.464			
00:00:12	-1.682	70.464			
00:00:12	-1.657	70.464			
00:00:12	-1.834	70.464			
00:00:12	-1.773	70.464			
00:00:12	-2.003	70.464			
00:00:12	-1.913	70.464			
00:00:12	-1.763	70.464			
00:00:12	-1.775	70.464			
00:00:12	-1.147	70.464			
00:00:12	-0.801	70.464			
00:00:12	-0.064	70.464			
00:00:12	1.206	70.464			
00:00:12	2.525	70.464			
00:00:12	4.292	70.464			
00:00:12	5.976	70.464			
00:00:12	7.737	70.464			
00:00:12	9.535	70.464			
00:00:12	10.991	70.464			
00:00:12	12.566	70.464			
00:00:12	13.685	70.464			
00:00:12	14.464	70.464			
00:00:12	15.237	70.464			
00:00:12	15.292	70.464			
00:00:12	15.497	70.464			
00:00:12	15.435	70.464			
00:00:12	15.034	70.464			
00:00:12	14.899	70.464			
00:00:12	14.254	70.464			
00:00:12	13.723	70.464			
00:00:12	13.141	70.464			
00:00:12	12.260	70.464			
00:00:12	11.726	70.464			
00:00:12	10.928	70.459			
00:00:12	10.334	70.459			
00:00:12	9.711	70.459			
00:00:12	8.828	70.459			
00:00:12	8.332	70.464			
00:00:12	7.574	70.464			
00:00:12	6.649	70.464			
00:00:12	5.811	70.464			
00:00:12	4.615	70.464			
00:00:12	3.761	70.464			
00:00:12	2.716	70.464			
00:00:12	1.810	70.464			
00:00:12	1.101	70.464			
00:00:12	0.079	70.464			
00:00:12	-0.340	70.464			
00:00:12	-0.891	70.464			
00:00:12	-1.455	70.464			
00:00:12	-1.193	70.464			
00:00:12	-1.021	70.464			
00:00:12	-0.714	70.464			
00:00:12	-0.473	70.464			
00:00:12	-0.549	70.464			
00:00:12	-0.351	70.464			
00:00:12	-0.367	70.464			
00:00:12	-0.060	70.464			
00:00:12	0.308	70.464			
00:00:12	-0.056	70.464			
00:00:12	-0.078	70.464			
00:00:12	-0.162	70.464			
00:00:12	-0.242	70.464			
00:00:12	-0.137	70.464			
00:00:12	-0.473	70.464			
00:00:12	-0.401	70.464			
00:00:12	-0.504	70.464			
00:00:12	-0.751	70.464			
00:00:12	-0.753	70.464			
00:00:12	-1.208	70.464			
00:00:12	-1.436	70.464			
00:00:12	-1.644	70.464			
00:00:12	-2.012	70.464			
00:00:12	-2.019	70.464			
00:00:12	-2.132	70.464			
00:00:12	-2.103	70.464			
00:00:12	-2.024	70.464			
00:00:12	-2.243	70.464			
00:00:12	-1.942	70.464			
00:00:12	-2.010	70.464			
00:00:12	-2.020	70.464			
00:00:12	-1.837	70.464			
00:00:12	-2.047	70.464			
00:00:12	-2.206	70.464			
00:00:12	-2.442	70.464			
00:00:12	-2.518	70.464			
00:00:12	-2.290	70.464			
00:00:12	-2.407	70.464			
00:00:12	-2.167	70.464			
00:00:12	-1.994	70.464			
00:00:12	-1.993	70.464			
00:00:12	-1.663	70.464			
00:00:12	-1.625	70.464			
00:00:12	-1.396	70.464			
00:00:12	-1.271	70.464			
00:00:12	-1.522	70.464			
00:00:12	-1.402	70.464			
00:00:13	-1.363	70.464			
00:00:13	-1.131	70.464			
00:00:13	-1.027	70.464			
00:00:13	-1.214	70.464			
00:00:13	-1.114	70.464			
00:00:13	-1.178	70.464			
00:00:13	-1.110	70.464			
00:00:13	-0.763	70.464			
00:00:13	-0.878	70.464			
00:00:13	-0.728	70.464			
00:00:13	-0.887	70.464			
00:00:13	-1.194	70.464			
00:00:13	-1.119	70.464			
00:00:13	-1.311	70.464			
00:00:13	-1.340	70.464			
00:00:13	-1.531	70.464			
00:00:13	-1.901	70.464			
00:00:13	-1.911	70.464			
00:00:13	-2.110	70.464			
00:00:13	-1.921	70.464			
00:00:13	-1.770	70.464			
00:00:13	-1.919	70.464			
00:00:13	-1.549	70.464			
00:00:13	-1.477	70.464			
00:00:13	-1.122	70.464			
00:00:13	-0.357	70.464			
00:00:13	0.339	70.464			
00:00:13	1.642	70.464			
00:00:13	3.083	70.464			
00:00:13	4.718	70.464			
00:00:13	6.520	70.464			
00:00:13	7.901	70.464			
00:00:13	9.799	70.464			
00:00:13	11.438	70.464			
00:00:13	12.777	70.464			
00:00:13	14.274	70.464			
00:00:13	15.106	70.464			
00:00:13	15.687	70.464			
00:00:13	16.089	70.464			
00:00:13	15.914	70.464			
00:00:13	15.864	70.464			
00:00:13	15.354	70.464			
00:00:13	15.054	70.464			
00:00:13	14.536	70.464			
00:00:13	13.705	70.464			
00:00:13	13.135	70.464			
00:00:13	12.306	70.464			
00:00:13	11.510	70.464			
00:00:13	10.781	68.571			
00:00:13	9.789	68.571			
00:00:13	9.221	68.571			
00:00:13	8.365	68.571			
00:00:13	7.547	68.576			
00:00:13	7.109	68.576			
00:00:13	6.260	68.576			
00:00:13	5.453	68.576			
00:00:13	4.280	68.576			
00:00:13	3.115	68.576			
00:00:13	2.397	68.576			
00:00:13	1.455	68.576			
00:00:13	0.738	68.576			
00:00:13	0.113	68.576			
00:00:13	-0.545	68.576			
00:00:13	-0.725	68.576			
00:00:13	-1.062	68.576			
00:00:13	-1.223	68.576			
00:00:13	-1.156	68.576			
00:00:13	-1.276	68.576			
00:00:13	-1.121	68.576			
00:00:13	-1.165	68.576			
00:00:13	-1.076	68.576			
00:00:13	-0.665	68.576			
00:00:13	-0.672	68.576			
00:00:13	-0.563	68.576			
00:00:13	-0.667	68.576			
00:00:13	-0.732	68.576			
00:00:13	-0.495	68.576			
00:00:13	-0.716	68.576			
00:00:13	-0.772	68.576			
00:00:13	-0.833	68.576			
00:00:13	-1.080	68.576			
00:00:13	-1.181	68.576			
00:00:13	-1.524	68.576			
00:00:13	-1.611	68.576			
00:00:13	-1.618	68.576			
00:00:13	-1.645	68.576			
00:00:13	-1.570	68.576			
00:00:13	-1.938	68.576			
00:00:13	-2.030	68.576			
00:00:13	-1.902	68.576			
00:00:13	-2.058	68.576			
00:00:13	-2.036	68.576			
00:00:13	-2.186	68.576			
00:00:13	-2.349	68.576			
00:00:13	-2.264	68.576			
00:00:13	-2.633	68.576			
00:00:13	-2.689	68.576			
00:00:13	-2.549	68.576			
00:00:13	-2.644	68.576			
00:00:13	-2.425	68.576			
00:00:13	-2.588	68.576			
00:00:13	-2.517	68.576			
00:00:13	-2.178	68.576			
00:00:13	-2.133	68.576			
00:00:13	-1.881	68.576			
00:00:13	-1.824	68.576			
00:00:13	-1.796	68.576			
00:00:13	-1.647	68.576			
00:00:13	-1.745	68.576			
00:00:13	-1.610	68.576			
00:00:13	-1.775	68.576			
00:00:13	-1.959	68.576			
00:00:13	-1.843	68.576			
00:00:13	-2.029	68.576			
00:00:13	-1.827	68.576			
00:00:13	-1.673	68.576			
00:00:13	-1.568	68.576			
00:00:13	-1.222	68.576			
00:00:13	-1.237	68.576			
00:00:13	-1.084	68.576			
00:00:13	-0.997	68.576			
00:00:13	-1.181	68.576			
00:00:13	-1.179	68.576			
00:00:13	-1.519	68.576			
00:00:13	-1.384	68.576			
00:00:13	-1.123	68.576			
00:00:13	-1.376	68.576			
00:00:13	-1.325	68.576			
00:00:14	-1.534	68.576			
00:00:14	-1.452	68.576			
00:00:14	-1.420	68.576			
00:00:14	-1.755	68.576			
00:00:14	-1.721	68.576			
00:00:14	-1.937	68.576			
00:00:14	-2.003	68.576			
00:00:14	-1.917	68.576			
00:00:14	-2.117	68.576			
00:00:14	-1.621	68.576			
00:00:14	-1.036	68.576			
00:00:14	-0.325	68.576			
00:00:14	0.765	68.576			
00:00:14	1.616	68.576			
00:00:14	3.293	68.576			
00:00:14	5.234	68.576			
00:00:14	7.129	68.576			
00:00:14	9.210	68.576			
00:00:14	10.849	68.576			
00:00:14	12.547	68.576			
00:00:14	14.099	68.576			
00:00:14	14.827	68.576			
00:00:14	15.536	68.576			
00:00:14	15.779	68.576			
00:00:14	15.865	68.576			
00:00:14	15.883	68.576			
00:00:14	15.340	68.576			
00:00:14	14.905	68.576			
00:00:14	14.341	68.576			
00:00:14	13.646	68.576			
00:00:14	13.053	68.576			
00:00:14	12.173	68.576			
00:00:14	11.586	67.965			
00:00:14	10.819	67.965			
00:00:14	10.010	67.965			
00:00:14	9.544	67.965			
00:00:14	8.453	67.970			
00:00:14	7.704	67.970			
00:00:14	6.907	67.970			
00:00:14	5.738	67.970			
00:00:14	4.910	67.970			
00:00:14	3.991	67.970			
00:00:14	3.196	67.970			
00:00:14	2.394	67.970			
00:00:14	1.361	67.970			
00:00:14	0.729	67.970			
00:00:14	-0.058	67.970			
00:00:14	-0.567	67.970			
00:00:14	-0.756	67.970			
00:00:14	-1.187	67.970			
00:00:14	-1.139	67.970			
00:00:14	-1.168	67.970			
00:00:14	-1.177	67.970			
00:00:14	-0.732	67.970			
00:00:14	-0.687	67.970			
00:00:14	-0.377	67.970			
00:00:14	-0.289	67.970			
00:00:14	-0.406	67.970			
00:00:14	-0.220	67.970			
00:00:14	-0.522	67.970			
00:00:14	-0.541	67.970			
00:00:14	-0.615	67.970			
00:00:14	-0.857	67.970			
00:00:14	-0.642	67.970			
00:00:14	-0.825	67.970			
00:00:14	-0.934	67.970			
00:00:14	-1.002	67.970			
00:00:14	-1.289	67.970			
00:00:14	-1.237	67.970			
00:00:14	-1.391	67.970			
00:00:14	-1.649	67.970			
00:00:14	-1.609	67.970			
00:00:14	-1.956	67.970			
00:00:14	-1.884	67.970			
00:00:14	-2.078	67.970			
00:00:14	-2.453	67.970			
00:00:14	-2.414	67.970			
00:00:14	-2.580	67.970			
00:00:14	-2.310	67.970			
00:00:14	-2.085	67.970			
00:00:14	-2.241	67.970			
00:00:14	-2.115	67.970			
00:00:14	-2.371	67.970			
00:00:14	-2.277	67.970			
00:00:14	-2.120	67.970			
00:00:14	-2.294	67.970			
00:00:14	-2.005	67.970			
00:00:14	-1.937	67.970			
00:00:14	-1.895	67.970			
00:00:14	-1.752	67.970			
00:00:14	-1.828	67.970			
00:00:14	-1.597	67.970			
00:00:14	-1.636	67.970			
00:00:14	-1.617	67.970			
00:00:14	-1.470	67.970			
00:00:14	-1.567	67.970			
00:00:14	-1.499	67.970			
00:00:14	-1.366	67.970			
00:00:14	-1.332	67.970			
00:00:14	-1.133	67.970			
00:00:14	-1.259	67.970			
00:00:14	-1.190	67.970			
00:00:14	-1.151	67.970			
00:00:14	-1.262	67.970			
00:00:14	-1.044	67.970			
00:00:14	-1.334	67.970			
00:00:14	-1.413	67.970			
00:00:14	-1.259	67.970			
00:00:14	-1.498	67.970			
00:00:14	-1.481	67.970			
00:00:14	-1.682	67.970			
00:00:14	-1.716	67.970			
00:00:14	-1.475	67.970			
00:00:14	-1.697	67.970			
00:00:14	-1.365	67.970			
00:00:14	-1.369	67.970			
00:00:14	-1.507	67.970			
00:00:14	-1.325	67.970			
00:00:14	-1.725	67.970			
00:00:14	-1.644	67.970			
00:00:14	-1.518	67.970			
00:00:14	-1.391	67.970			
00:00:14	-0.510	67.970			
00:00:14	0.243	67.970			
00:00:14	1.562	67.970			
00:00:14	3.252	67.970			
00:00:14	4.732	67.970			
00:00:14	6.594	67.970			
00:00:15	8.104	67.970			
00:00:15	9.599	67.970			
00:00:15	11.247	67.970			
00:00:15	12.272	67.970			
00:00:15	13.563	67.970			
00:00:15	14.406	67.970			
00:00:15	14.919	67.970			
00:00:15	15.239	67.970			
00:00:15	14.893	67.970			
00:00:15	14.646	67.970			
00:00:15	14.201	67.970			
00:00:15	13.448	67.970			
00:00:15	12.944	67.970			
00:00:15	12.114	67.970			
00:00:15	11.514	67.970			
00:00:15	10.874	67.970			
00:00:15	10.000	69.189			
00:00:15	9.424	69.189			
00:00:15	8.535	69.189			
00:00:15	7.807	69.189			
00:00:15	7.058	69.194			
00:00:15	6.002	69.194			
00:00:15	5.303	69.194			
00:00:15	4.290	69.194			
00:00:15	3.356	69.194			
00:00:15	2.630	69.194			
00:00:15	1.607	69.194			
00:00:15	0.972	69.194			
00:00:15	0.219	69.194			
00:00:15	-0.361	69.194			
00:00:15	-0.558	69.194			
00:00:15	-1.033	69.194			
00:00:15	-1.060	69.194			
00:00:15	-1.082	69.194			
00:00:15	-1.147	69.194			
00:00:15	-0.817	69.194			
00:00:15	-0.765	69.194			
00:00:15	-0.548	69.194			
00:00:15	-0.436	69.194			
00:00:15	-0.494	69.194			
00:00:15	-0.180	69.194			
00:00:15	-0.293	69.194			
00:00:15	-0.329	69.194			
00:00:15	-0.114	69.194			
00:00:15	-0.377	69.194			
00:00:15	-0.360	69.194			
00:00:15	-0.455	69.194			
00:00:15	-0.576	69.194			
00:00:15	-0.602	69.194			
00:00:15	-0.948	69.194			
00:00:15	-1.063	69.194			
00:00:15	-1.399	69.194			
00:00:15	-1.824	69.194			
00:00:15	-1.749	69.194			
00:00:15	-2.087	69.194			
00:00:15	-2.145	69.194			
00:00:15	-2.313	69.194			
00:00:15	-2.571	69.194			
00:00:15	-2.415	69.194			
00:00:15	-2.668	69.194			
00:00:15	-2.860	69.194			
00:00:15	-2.950	69.194			
00:00:15	-3.280	69.194			
00:00:15	-3.029	69.194			
00:00:15	-2.898	69.194			
00:00:15	-2.795	69.194			
00:00:15	-2.588	69.194			
00:00:15	-2.750	69.194			
00:00:15	-2.539	69.194			
00:00:15	-2.630	69.194			
00:00:15	-2.652	69.194			
00:00:15	-2.474	69.194			
00:00:15	-2.724	69.194			
00:00:15	-2.604	69.194			
00:00:15	-2.602	69.194			
00:00:15	-2.568	69.194			
00:00:15	-2.092	69.194			
00:00:15	-2.066	69.194			
00:00:15	-1.864	69.194			
00:00:15	-1.745	69.194			
00:00:15	-1.759	69.194			
00:00:15	-1.410	69.194			
00:00:15	-1.396	69.194			
00:00:15	-1.338	69.194			
00:00:15	-1.233	69.194			
00:00:15	-1.321	69.194			
00:00:15	-1.099	69.194			
00:00:15	-1.280	69.194			
00:00:15	-1.475	69.194			
00:00:15	-1.434	69.194			
00:00:15	-1.667	69.194			
00:00:15	-1.495	69.194			
00:00:15	-1.498	69.194			
00:00:15	-1.720	69.194			
00:00:15	-1.664	69.194			
00:00:15	-1.805	69.194			
00:00:15	-1.760	69.194			
00:00:15	-1.766	69.194			
00:00:15	-2.050	69.194			
00:00:15	-1.957	69.194			
00:00:15	-2.180	69.194			
00:00:15	-2.234	69.194			
00:00:15	-2.155	69.194			
00:00:15	-2.039	69.194			
00:00:15	-1.421	69.194			
00:00:15	-0.911	69.194			
00:00:15	0.014	69.194			
00:00:15	1.649	69.194			
00:00:15	3.110	69.194			
00:00:15	5.133	69.194			
00:00:15	7.079	69.194			
00:00:15	8.920	69.194			
00:00:15	10.976	69.194			
00:00:15	12.399	69.194			
00:00:15	13.832	69.194			
00:00:15	14.974	69.194			
00:00:15	15.794	69.194			
00:00:15	16.540	69.194			
00:00:15	16.571	69.194			
00:00:15	16.459	69.194			
00:00:15	16.127	69.194			
00:00:15	15.460	69.194			
00:00:15	15.045	69.194			
00:00:15	14.257	69.194			
00:00:15	13.465	69.194			
00:00:15	12.780	69.194			
00:00:15	11.652	69.194			
00:00:15	10.881	69.194			
00:00:16	10.288	71.781			
00:00:16	9.520	71.781			
00:00:16	8.702	71.781			
00:00:16	7.535	71.781			
00:00:16	6.948	71.781			
00:00:16	6.146	71.781			
00:00:16	5.363	71.781			
00:00:16	4.780	71.781			
00:00:16	3.644	71.781			
00:00:16	2.742	71.781			
00:00:16	1.913	71.781			
00:00:16	0.763	71.781			
00:00:16	0.173	71.781			
00:00:16	-0.376	71.781			
00:00:16	-0.721	71.781			
00:00:16	-1.014	71.781			
00:00:16	-1.420	71.781			
00:00:16	-1.408	71.781			
00:00:16	-1.550	71.781			
00:00:16	-1.341	71.781			
00:00:16	-1.031	71.781			
00:00:16	-1.046	71.781			
00:00:16	-0.826	71.781			
00:00:16	-0.764	71.781			
00:00:16	-0.731	71.781			
00:00:16	-0.278	71.781			
00:00:16	-0.252	71.781			
00:00:16	-0.079	71.781			
00:00:16	-0.178	71.781			
00:00:16	-0.220	71.781			
00:00:16	-0.210	71.781			
00:00:16	-0.536	71.781			
00:00:16	-0.829	71.781			
00:00:16	-1.108	71.781			
00:00:16	-1.535	71.781			
00:00:16	-1.598	71.781			
00:00:16	-1.903	71.781			
00:00:16	-1.842	71.781			
00:00:16	-1.900	71.781			
00:00:16	-2.292	71.781			
00:00:16	-2.242	71.781			
00:00:16	-2.421	71.781			
00:00:16	-2.464	71.781			
00:00:16	-2.357	71.781			
00:00:16	-2.611	71.781			
00:00:16	-2.545	71.781			
00:00:16	-2.766	71.781			
00:00:16	-2.928	71.781			
00:00:16	-2.845	71.781			
00:00:16	-3.074	71.781			
00:00:16	-3.045	71.781			
00:00:16	-3.015	71.781			
00:00:16	-3.078	71.781			
00:00:16	-2.883	71.781			
00:00:16	-2.975	71.781			
00:00:16	-2.807	71.781			
00:00:16	-2.737	71.781			
00:00:16	-2.800	71.781			
00:00:16	-2.495	71.781			
00:00:16	-2.532	71.781			
00:00:16	-2.307	71.781			
00:00:16	-1.994	71.781			
00:00:16	-2.193	71.781			
00:00:16	-2.102	71.781			
00:00:16	-2.237	71.781			
00:00:16	-2.305	71.781			
00:00:16	-2.041	71.781			
00:00:16	-2.197	71.781			
00:00:16	-1.878	71.781			
00:00:16	-1.551	71.781			
00:00:16	-1.438	71.781			
00:00:16	-1.166	71.781			
00:00:16	-1.341	71.781			
00:00:16	-1.246	71.781			
00:00:16	-1.270	71.781			
00:00:16	-1.507	71.781			
00:00:16	-1.490	71.781			
00:00:16	-1.656	71.781			
00:00:16	-1.605	71.781			
00:00:16	-1.663	71.781			
00:00:16	-1.834	71.781			
00:00:16	-1.611	71.781			
00:00:16	-1.887	71.781			
00:00:16	-1.976	71.781			
00:00:16	-1.953	71.781			
00:00:16	-2.330	71.781			
00:00:16	-2.381	71.781			
00:00:16	-2.378	71.781			
00:00:16	-2.151	71.781			
00:00:16	-1.784	71.781			
00:00:16	-1.516	71.781			
00:00:16	-0.412	71.781			
00:00:16	0.844	71.781			
00:00:16	2.277	71.781			
00:00:16	4.160	71.781			
00:00:16	5.894	71.781			
00:00:16	7.752	71.781			
00:00:16	9.659	71.781			
00:00:16	11.458	71.781			
00:00:16	13.345	71.781			
00:00:16	14.594	71.781			
00:00:16	15.575	71.781			
00:00:16	16.225	71.781			
00:00:16	16.337	71.781			
00:00:16	16.525	71.781			
00:00:16	16.285	71.781			
00:00:16	15.779	71.781			
00:00:16	15.122	71.781			
00:00:16	14.306	71.781			
00:00:16	13.760	71.781			
00:00:16	12.833	71.781			
00:00:16	12.017	71.781			
00:00:16	11.399	64.000			
00:00:16	10.213	64.000			
00:00:16	9.358	64.000			
00:00:16	8.614	64.000			
00:00:16	7.621	64.005			
00:00:16	7.016	64.005			
00:00:16	6.266	64.005			
00:00:16	5.777	64.005			
00:00:16	5.033	64.005			
00:00:16	3.924	64.005			
00:00:16	3.115	64.005			
00:00:16	1.956	64.005			
00:00:16	1.041	64.005			
00:00:16	0.405	64.005			
00:00:16	-0.344	64.005			
00:00:16	-0.677	64.005			
00:00:17	-1.068	64.005			
00:00:17	-1.191	64.005			
00:00:17	-1.252	64.005			
00:00:17	-1.648	64.005			
00:00:17	-1.511	64.005			
00:00:17	-1.533	64.005			
00:00:17	-1.565	64.005			
00:00:17	-1.330	64.005			
00:00:17	-1.342	64.005			
00:00:17	-1.039	64.005			
00:00:17	-0.842	64.005			
00:00:17	-0.640	64.005			
00:00:17	-0.259	64.005			
00:00:17	-0.517	64.005			
00:00:17	-0.674	64.005			
00:00:17	-0.676	64.005			
00:00:17	-0.961	64.005			
00:00:17	-1.034	64.005			
00:00:17	-1.165	64.005			
00:00:17	-1.264	64.005			
00:00:17	-1.373	64.005			
00:00:17	-1.753	64.005			
00:00:17	-1.637	64.005			
00:00:17	-1.832	64.005			
00:00:17	-2.140	64.005			
00:00:17	-2.196	64.005			
00:00:17	-2.571	64.005			
00:00:17	-2.620	64.005			
00:00:17	-2.723	64.005			
00:00:17	-2.812	64.005			
00:00:17	-2.477	64.005			
00:00:17	-2.589	64.005			
00:00:17	-2.741	64.005			
00:00:17	-2.782	64.005			
00:00:17	-3.039	64.005			
00:00:17	-3.168	64.005			
00:00:17	-3.400	64.005			
00:00:17	-3.436	64.005			
00:00:17	-3.242	64.005			
00:00:17	-3.128	64.005			
00:00:17	-2.558	64.005			
00:00:17	-2.668	64.005			
00:00:17	-2.862	64.005			
00:00:17	-2.775	64.005			
00:00:17	-2.889	64.005			
00:00:17	-2.614	64.005			
00:00:17	-2.590	64.005			
00:00:17	-2.469	64.005			
00:00:17	-2.129	64.005			
00:00:17	-2.160	64.005			
00:00:17	-2.099	64.005			
00:00:17	-2.069	64.005			
00:00:17	-2.341	64.005			
00:00:17	-2.305	64.005			
00:00:17	-2.531	64.005			
00:00:17	-2.355	64.005			
00:00:17	-2.032	64.005			
00:00:17	-1.956	64.005			
00:00:17	-1.452	64.005			
00:00:17	-1.459	64.005			
00:00:17	-1.611	64.005			
00:00:17	-1.561	64.005			
00:00:17	-1.911	64.005			
00:00:17	-1.863	64.005			
00:00:17	-1.871	64.005			
00:00:17	-1.775	64.005			
00:00:17	-1.675	64.005			
00:00:17	-1.996	64.005			
00:00:17	-1.954	64.005			
00:00:17	-1.973	64.005			
00:00:17	-2.143	64.005			
00:00:17	-2.043	64.005			
00:00:17	-2.239	64.005			
00:00:17	-2.409	64.005			
00:00:17	-2.432	64.005			
00:00:17	-2.368	64.005			
00:00:17	-2.066	64.005			
00:00:17	-1.912	64.005			
00:00:17	-1.037	64.005			
00:00:17	0.179	64.005			
00:00:17	1.333	64.005			
00:00:17	3.167	64.005			
00:00:17	5.082	64.005			
00:00:17	7.160	64.005			
00:00:17	9.461	64.005			
00:00:17	11.274	64.005			
00:00:17	13.064	64.005			
00:00:17	14.379	64.005			
00:00:17	15.487	64.005			
00:00:17	16.383	64.005			
00:00:17	16.501	64.005			
00:00:17	16.565	64.005			
00:00:17	16.202	64.005			
00:00:17	15.486	64.005			
00:00:17	15.002	64.005			
00:00:17	14.250	64.005			
00:00:17	13.555	64.005			
00:00:17	12.731	64.005			
00:00:17	11.834	64.005			
00:00:17	11.399	64.005			
00:00:17	10.425	66.783			
00:00:17	9.439	66.783			
00:00:17	8.684	66.783			
00:00:17	7.605	66.783			
00:00:17	6.750	66.788			
00:00:17	5.912	66.788			
00:00:17	5.177	66.788			
00:00:17	4.451	66.788			
00:00:17	3.310	66.788			
00:00:17	2.690	66.788			
00:00:17	2.006	66.788			
00:00:17	0.975	66.788			
00:00:17	0.238	66.788			
00:00:17	-0.565	66.788			
00:00:17	-0.898	66.788			
00:00:17	-1.227	66.788			
00:00:17	-1.657	66.788			
00:00:17	-1.587	66.788			
00:00:17	-1.711	66.788			
00:00:17	-1.673	66.788			
00:00:17	-1.529	66.788			
00:00:17	-1.550	66.788			
00:00:17	-0.986	66.788			
00:00:17	-0.761	66.788			
00:00:17	-0.599	66.788			
00:00:17	-0.452	66.788			
00:00:17	-0.445	66.788			
00:00:17	-0.120	66.788			
00:00:18	-0.210	66.788			
00:00:18	-0.315	66.788			
00:00:18	-0.289	66.788			
00:00:18	-0.746	66.788			
00:00:18	-0.891	66.788			
00:00:18	-0.809	66.788			
00:00:18	-0.966	66.788			
00:00:18	-1.153	66.788			
00:00:18	-1.620	66.788			
00:00:18	-1.760	66.788			
00:00:18	-1.817	66.788			
00:00:18	-1.961	66.788			
00:00:18	-1.927	66.788			
00:00:18	-2.366	66.788			
00:00:18	-2.657	66.788			
00:00:18	-2.795	66.788			
00:00:18	-3.058	66.788			
00:00:18	-3.043	66.788			
00:00:18	-3.120	66.788			
00:00:18	-3.097	66.788			
00:00:18	-2.841	66.788			
00:00:18	-3.027	66.788			
00:00:18	-2.826	66.788			
00:00:18	-2.879	66.788			
00:00:18	-3.040	66.788			
00:00:18	-2.967	66.788			
00:00:18	-3.040	66.788			
00:00:18	-2.823	66.788			
00:00:18	-2.785	66.788			
00:00:18	-2.711	66.788			
00:00:18	-2.466	66.788			
00:00:18	-2.500	66.788			
00:00:18	-2.311	66.788			
00:00:18	-2.265	66.788			
00:00:18	-2.349	66.788			
00:00:18	-2.035	66.788			
00:00:18	-2.052	66.788			
00:00:18	-1.946	66.788			
00:00:18	-1.718	66.788			
00:00:18	-1.832	66.788			
00:00:18	-1.612	66.788			
00:00:18	-1.622	66.788			
00:00:18	-1.622	66.788			
00:00:18	-1.393	66.788			
00:00:18	-1.669	66.788			
00:00:18	-1.690	66.788			
00:00:18	-1.496	66.788			
00:00:18	-1.453	66.788			
00:00:18	-1.376	66.788			
00:00:18	-1.599	66.788			
00:00:18	-1.595	66.788			
00:00:18	-1.621	66.788			
00:00:18	-1.781	66.788			
00:00:18	-1.644	66.788			
00:00:18	-1.830	66.788			
00:00:18	-1.820	66.788			
00:00:18	-1.606	66.788			
00:00:18	-1.826	66.788			
00:00:18	-1.837	66.788			
00:00:18	-2.066	66.788			
00:00:18	-2.111	66.788			
00:00:18	-1.764	66.788			
00:00:18	-1.502	66.788			
00:00:18	-0.529	66.788			
00:00:18	0.513	66.788			
00:00:18	1.681	66.788			
00:00:18	3.478	66.788			
00:00:18	5.243	66.788			
00:00:18	7.433	66.788			
00:00:18	9.362	66.788			
00:00:18	11.079	66.788			
00:00:18	12.855	66.788			
00:00:18	13.938	66.788			
00:00:18	15.089	66.788			
00:00:18	15.945	66.788			
00:00:18	16.134	66.788			
00:00:18	16.147	66.788			
00:00:18	15.645	66.788			
00:00:18	15.216	66.788			
00:00:18	14.756	66.788			
00:00:18	13.963	66.788			
00:00:18	13.212	66.788			
00:00:18	12.034	66.788			
00:00:18	10.846	66.788			
00:00:18	10.016	67.965			
00:00:18	8.925	67.965			
00:00:18	8.077	67.965			
00:00:18	7.149	67.965			
00:00:18	6.278	67.970			
00:00:18	5.782	67.970			
00:00:18	4.751	67.970			
00:00:18	3.956	67.970			
00:00:18	2.992	67.970			
00:00:18	1.964	67.970			
00:00:18	1.138	67.970			
00:00:18	0.291	67.970			
00:00:18	-0.265	67.970			
00:00:18	-0.852	67.970			
00:00:18	-1.614	67.970			
00:00:18	-1.875	67.970			
00:00:18	-2.200	67.970			
00:00:18	-2.312	67.970			
00:00:18	-2.024	67.970			
00:00:18	-1.832	67.970			
00:00:18	-1.453	67.970			
00:00:18	-1.399	67.970			
00:00:18	-1.228	67.970			
00:00:18	-0.717	67.970			
00:00:18	-0.481	67.970			
00:00:18	-0.140	67.970			
00:00:18	0.002	67.970			
00:00:18	0.138	67.970			
00:00:18	0.395	67.970			
00:00:18	0.146	67.970			
00:00:18	0.072	67.970			
00:00:18	-0.070	67.970			
00:00:18	-0.509	67.970			
00:00:18	-0.593	67.970			
00:00:18	-0.956	67.970			
00:00:18	-1.080	67.970			
00:00:18	-1.231	67.970			
00:00:18	-1.724	67.970			
00:00:18	-1.788	67.970			
00:00:18	-2.058	67.970			
00:00:18	-2.241	67.970			
00:00:18	-2.270	67.970			
00:00:18	-2.651	67.970			
00:00:18	-2.751	67.970			
00:00:19	-2.954	67.970			
00:00:19	-3.021	67.970			
00:00:19	-2.688	67.970			
00:00:19	-2.823	67.970			
00:00:19	-2.942	67.970			
00:00:19	-3.047	67.970			
00:00:19	-3.338	67.970			
00:00:19	-3.416	67.970			
00:00:19	-3.609	67.970			
00:00:19	-3.372	67.970			
00:00:19	-3.002	67.970			
00:00:19	-2.939	67.970			
00:00:19	-2.736	67.970			
00:00:19	-3.025	67.970			
00:00:19	-3.017	67.970			
00:00:19	-2.931	67.970			
00:00:19	-2.959	67.970			
00:00:19	-2.814	67.970			
00:00:19	-2.761	67.970			
00:00:19	-2.634	67.970			
00:00:19	-2.205	67.970			
00:00:19	-2.247	67.970			
00:00:19	-1.995	67.970			
00:00:19	-1.809	67.970			
00:00:19	-1.576	67.970			
00:00:19	-1.298	67.970			
00:00:19	-1.401	67.970			
00:00:19	-1.237	67.970			
00:00:19	-1.141	67.970			
00:00:19	-1.249	67.970			
00:00:19	-1.253	67.970			
00:00:19	-1.632	67.970			
00:00:19	-1.717	67.970			
00:00:19	-1.672	67.970			
00:00:19	-1.876	67.970			
00:00:19	-1.784	67.970			
00:00:19	-1.928	67.970			
00:00:19	-1.948	67.970			
00:00:19	-1.925	67.970			
00:00:19	-2.422	67.970			
00:00:19	-2.498	67.970			
00:00:19	-2.566	67.970			
00:00:19	-2.551	67.970			
00:00:19	-2.193	67.970			
00:00:19	-1.981	67.970			
00:00:19	-1.262	67.970			
00:00:19	-0.532	67.970			
00:00:19	0.561	67.970			
00:00:19	2.418	67.970			
00:00:19	4.076	67.970			
00:00:19	6.174	67.970			
00:00:19	8.268	67.970			
00:00:19	10.068	67.970			
00:00:19	12.063	67.970			
00:00:19	13.719	67.970			
00:00:19	15.216	67.970			
00:00:19	16.339	67.970			
00:00:19	16.680	67.970			
00:00:19	17.206	67.970			
00:00:19	17.080	67.970			
00:00:19	16.891	67.970			
00:00:19	16.469	67.970			
00:00:19	15.767	67.970			
00:00:19	15.253	67.970			
00:00:19	14.343	67.970			
00:00:19	13.335	67.970			
00:00:19	12.532	67.970			
00:00:19	11.515	67.970			
00:00:19	10.798	69.189			
00:00:19	9.874	69.189			
00:00:19	8.938	69.189			
00:00:19	8.255	69.189			
00:00:19	7.311	69.194			
00:00:19	6.518	69.194			
00:00:19	5.587	69.194			
00:00:19	4.386	69.194			
00:00:19	3.693	69.194			
00:00:19	2.664	69.194			
00:00:19	1.805	69.194			
00:00:19	1.133	69.194			
00:00:19	0.114	69.194			
00:00:19	-0.430	69.194			
00:00:19	-0.910	69.194			
00:00:19	-1.317	69.194			
00:00:19	-1.465	69.194			
00:00:19	-1.670	69.194			
00:00:19	-1.626	69.194			
00:00:19	-1.758	69.194			
00:00:19	-1.650	69.194			
00:00:19	-1.192	69.194			
00:00:19	-0.998	69.194			
00:00:19	-0.543	69.194			
00:00:19	-0.252	69.194			
00:00:19	-0.212	69.194			
00:00:19	0.144	69.194			
00:00:19	0.268	69.194			
00:00:19	0.294	69.194			
00:00:19	0.218	69.194			
00:00:19	0.016	69.194			
00:00:19	0.225	69.194			
00:00:19	-0.110	69.194			
00:00:19	-0.372	69.194			
00:00:19	-0.563	69.194			
00:00:19	-1.047	69.194			
00:00:19	-1.010	69.194			
00:00:19	-1.121	69.194			
00:00:19	-1.442	69.194			
00:00:19	-1.414	69.194			
00:00:19	-1.718	69.194			
00:00:19	-1.634	69.194			
00:00:19	-1.742	69.194			
00:00:19	-1.992	69.194			
00:00:19	-2.056	69.194			
00:00:19	-2.531	69.194			
00:00:19	-2.658	69.194			
00:00:19	-2.695	69.194			
00:00:19	-2.842	69.194			
00:00:19	-2.653	69.194			
00:00:19	-2.986	69.194			
00:00:19	-3.036	69.194			
00:00:19	-2.901	69.194			
00:00:19	-3.049	69.194			
00:00:19	-2.978	69.194			
00:00:19	-3.007	69.194			
00:00:19	-3.088	69.194			
00:00:19	-2.957	69.194			
00:00:19	-2.916	69.194			
00:00:19	-2.723	69.194			
00:00:20	-2.655	69.194			
00:00:20	-2.599	69.194			
00:00:20	-2.321	69.194			
00:00:20	-2.525	69.194			
00:00:20	-2.326	69.194			
00:00:20	-2.185	69.194			
00:00:20	-2.272	69.194			
00:00:20	-1.917	69.194			
00:00:20	-2.045	69.194			
00:00:20	-1.868	69.194			
00:00:20	-1.516	69.194			
00:00:20	-1.470	69.194			
00:00:20	-1.145	69.194			
00:00:20	-1.114	69.194			
00:00:20	-1.148	69.194			
00:00:20	-1.073	69.194			
00:00:20	-1.399	69.194			
00:00:20	-1.277	69.194			
00:00:20	-1.329	69.194			
00:00:20	-1.473	69.194			
00:00:20	-1.588	69.194			
00:00:20	-2.062	69.194			
00:00:20	-2.140	69.194			
00:00:20	-2.395	69.194			
00:00:20	-2.588	69.194			
00:00:20	-2.364	69.194			
00:00:20	-2.535	69.194			
00:00:20	-2.425	69.194			
00:00:20	-2.147	69.194			
00:00:20	-1.547	69.194			
00:00:20	-0.489	69.194			
00:00:20	0.526	69.194			
00:00:20	1.840	69.194			
00:00:20	3.652	69.194			
00:00:20	5.422	69.194			
00:00:20	7.503	69.194			
00:00:20	9.385	69.194			
00:00:20	11.273	69.194			
00:00:20	13.086	69.194			
00:00:20	14.380	69.194			
00:00:20	15.762	69.194			
00:00:20	16.562	69.194			
00:00:20	17.050	69.194			
00:00:20	17.390	69.194			
00:00:20	17.284	69.194			
00:00:20	17.091	69.194			
00:00:20	16.605	69.194			
00:00:20	15.758	69.194			
00:00:20	15.240	69.194			
00:00:20	14.405	69.194			
00:00:20	13.606	69.194			
00:00:20	12.629	69.194			
00:00:20	11.354	68.571			
00:00:20	10.543	68.571			
00:00:20	9.529	68.571			
00:00:20	8.589	68.571			
00:00:20	7.739	68.576			
00:00:20	6.773	68.576			
00:00:20	6.007	68.576			
00:00:20	4.979	68.576			
00:00:20	4.094	68.576			
00:00:20	3.268	68.576			
00:00:20	2.232	68.576			
00:00:20	1.563	68.576			
00:00:20	0.764	68.576			
00:00:20	0.051	68.576			
00:00:20	-0.343	68.576			
00:00:20	-0.958	68.576			
00:00:20	-1.057	68.576			
00:00:20	-1.123	68.576			
00:00:20	-1.311	68.576			
00:00:20	-1.028	68.576			
00:00:20	-0.984	68.576			
00:00:20	-0.699	68.576			
00:00:20	-0.255	68.576			
00:00:20	-0.331	68.576			
00:00:20	-0.130	68.576			
00:00:20	-0.194	68.576			
00:00:20	0.017	68.576			
00:00:20	0.170	68.576			
00:00:20	0.020	68.576			
00:00:20	0.275	68.576			
00:00:20	0.096	68.576			
00:00:20	-0.035	68.576			
00:00:20	-0.023	68.576			
00:00:20	-0.256	68.576			
00:00:20	-0.228	68.576			
00:00:20	-0.430	68.576			
00:00:20	-0.814	68.576			
00:00:20	-1.001	68.576			
00:00:20	-1.487	68.576			
00:00:20	-1.498	68.576			
00:00:20	-1.457	68.576			
00:00:20	-1.488	68.576			
00:00:20	-1.498	68.576			
00:00:20	-1.983	68.576			
00:00:20	-2.215	68.576			
00:00:20	-2.350	68.576			
00:00:20	-2.634	68.576			
00:00:20	-2.444	68.576			
00:00:20	-2.636	68.576			
00:00:20	-2.899	68.576			
00:00:20	-2.908	68.576			
00:00:20	-3.105	68.576			
00:00:20	-2.929	68.576			
00:00:20	-2.892	68.576			
00:00:20	-2.965	68.576			
00:00:20	-2.948	68.576			
00:00:20	-3.129	68.576			
00:00:20	-2.940	68.576			
00:00:20	-2.727	68.576			
00:00:20	-2.645	68.576			
00:00:20	-2.478	68.576			
00:00:20	-2.680	68.576			
00:00:20	-2.493	68.576			
00:00:20	-2.327	68.576			
00:00:20	-2.284	68.576			
00:00:20	-1.909	68.576			
00:00:20	-1.996	68.576			
00:00:20	-1.953	68.576			
00:00:20	-1.830	68.576			
00:00:20	-1.740	68.576			
00:00:20	-1.440	68.576			
00:00:20	-1.510	68.576			
00:00:20	-1.414	68.576			
00:00:20	-1.371	68.576			
00:00:20	-1.651	68.576			
00:00:20	-1.502	68.576			
00:00:21	-1.430	68.576			
00:00:21	-1.365	68.576			
00:00:21	-0.962	68.576			
00:00:21	-1.042	68.576			
00:00:21	-1.129	68.576			
00:00:21	-1.297	68.576			
00:00:21	-1.474	68.576			
00:00:21	-1.380	68.576			
00:00:21	-1.845	68.576			
00:00:21	-1.937	68.576			
00:00:21	-1.914	68.576			
00:00:21	-2.177	68.576			
00:00:21	-1.935	68.576			
00:00:21	-1.696	68.576			
00:00:21	-0.982	68.576			
00:00:21	0.192	68.576			
00:00:21	1.395	68.576			
00:00:21	3.396	68.576			
00:00:21	5.254	68.576			
00:00:21	7.044	68.576			
00:00:21	9.319	68.576			
00:00:21	11.269	68.576			
00:00:21	13.134	68.576			
00:00:21	14.532	68.576			
00:00:21	15.645	68.576			
00:00:21	16.634	68.576			
00:00:21	16.847	68.576			
00:00:21	17.328	68.576			
00:00:21	17.489	68.576			
00:00:21	17.000	68.576			
00:00:21	16.496	68.576			
00:00:21	15.668	68.576			
00:00:21	14.886	68.576			
00:00:21	14.036	68.576			
00:00:21	12.935	68.576			
00:00:21	12.077	68.576			
00:00:21	10.978	68.571			
00:00:21	10.054	68.571			
00:00:21	9.162	68.571			
00:00:21	8.207	68.571			
00:00:21	7.614	68.576			
00:00:21	6.854	68.576			
00:00:21	5.947	68.576			
00:00:21	5.215	68.576			
00:00:21	3.983	68.576			
00:00:21	3.161	68.576			
00:00:21	2.231	68.576			
00:00:21	1.176	68.576			
00:00:21	0.682	68.576			
00:00:21	-0.016	68.576			
00:00:21	-0.424	68.576			
00:00:21	-0.778	68.576			
00:00:21	-1.053	68.576			
00:00:21	-1.026	68.576			
00:00:21	-1.292	68.576			
00:00:21	-1.181	68.576			
00:00:21	-0.925	68.576			
00:00:21	-0.935	68.576			
00:00:21	-0.564	68.576			
00:00:21	-0.424	68.576			
00:00:21	-0.236	68.576			
00:00:21	0.172	68.576			
00:00:21	0.434	68.576			
00:00:21	0.832	68.576			
00:00:21	0.740	68.576			
00:00:21	0.538	68.576			
00:00:21	0.717	68.576			
00:00:21	0.407	68.576			
00:00:21	0.203	68.576			
00:00:21	0.052	68.576			
00:00:21	-0.019	68.576			
00:00:21	0.077	68.576			
00:00:21	-0.354	68.576			
00:00:21	-0.471	68.576			
00:00:21	-0.563	68.576			
00:00:21	-1.002	68.576			
00:00:21	-1.125	68.576			
00:00:21	-1.386	68.576			
00:00:21	-1.467	68.576			
00:00:21	-1.476	68.576			
00:00:21	-1.878	68.576			
00:00:21	-1.963	68.576			
00:00:21	-2.295	68.576			
00:00:21	-2.511	68.576			
00:00:21	-2.504	68.576			
00:00:21	-2.708	68.576			
00:00:21	-2.564	68.576			
00:00:21	-2.521	68.576			
00:00:21	-2.409	68.576			
00:00:21	-2.155	68.576			
00:00:21	-2.221	68.576			
00:00:21	-2.045	68.576			
00:00:21	-2.087	68.576			
00:00:21	-2.253	68.576			
00:00:21	-1.941	68.576			
00:00:21	-2.134	68.576			
00:00:21	-2.301	68.576			
00:00:21	-2.140	68.576			
00:00:21	-2.075	68.576			
00:00:21	-1.652	68.576			
00:00:21	-1.544	68.576			
00:00:21	-1.298	68.576			
00:00:21	-1.034	68.576			
00:00:21	-1.293	68.576			
00:00:21	-1.058	68.576			
00:00:21	-0.883	68.576			
00:00:21	-0.760	68.576			
00:00:21	-0.570	68.576			
00:00:21	-0.723	68.576			
00:00:21	-0.705	68.576			
00:00:21	-0.875	68.576			
00:00:21	-1.018	68.576			
00:00:21	-0.958	68.576			
00:00:21	-1.166	68.576			
00:00:21	-1.175	68.576			
00:00:21	-1.175	68.576			
00:00:21	-1.234	68.576			
00:00:21	-1.033	68.576			
00:00:21	-1.239	68.576			
00:00:21	-1.334	68.576			
00:00:21	-1.358	68.576			
00:00:21	-1.409	68.576			
00:00:21	-0.902	68.576			
00:00:21	-0.428	68.576			
00:00:21	0.570	68.576			
00:00:21	2.023	68.576			
00:00:21	3.503	68.576			
00:00:21	5.604	68.576			
00:00:22	7.464	68.576			
00:00:22	9.199	68.576			
00:00:22	11.303	68.576			
00:00:22	12.941	68.576			
00:00:22	14.575	68.576			
00:00:22	15.615	68.576			
00:00:22	16.144	68.576			
00:00:22	16.571	68.576			
00:00:22	16.274	68.576			
00:00:22	15.973	68.576			
00:00:22	15.778	68.576			
00:00:22	15.213	68.576			
00:00:22	14.713	68.576			
00:00:22	13.739	68.576			
00:00:22	12.818	68.576			
00:00:22	12.049	68.576			
00:00:22	11.115	70.459			
00:00:22	10.414	70.459			
00:00:22	9.322	70.459			
00:00:22	8.336	70.459			
00:00:22	7.663	70.464			
00:00:22	6.768	70.464			
00:00:22	6.086	70.464			
00:00:22	5.037	70.464			
00:00:22	3.883	70.464			
00:00:22	3.008	70.464			
00:00:22	1.852	70.464			
00:00:22	1.118	70.464			
00:00:22	0.488	70.464			
00:00:22	-0.237	70.464			
00:00:22	-0.349	70.464			
00:00:22	-0.841	70.464			
00:00:22	-0.873	70.464			
00:00:22	-0.548	70.464			
00:00:22	-0.520	70.464			
00:00:22	-0.219	70.464			
00:00:22	-0.297	70.464			
00:00:22	-0.285	70.464			
00:00:22	-0.049	70.464			
00:00:22	-0.136	70.464			
00:00:22	0.268	70.464			
00:00:22	0.464	70.464			
00:00:22	0.552	70.464			
00:00:22	0.703	70.464			
00:00:22	0.493	70.464			
00:00:22	0.765	70.464			
00:00:22	0.831	70.464			
00:00:22	0.708	70.464			
00:00:22	0.801	70.464			
00:00:22	0.354	70.464			
00:00:22	0.385	70.464			
00:00:22	0.503	70.464			
00:00:22	0.139	70.464			
00:00:22	-0.022	70.464			
00:00:22	-0.404	70.464			
00:00:22	-0.485	70.464			
00:00:22	-0.507	70.464			
00:00:22	-0.868	70.464			
00:00:22	-1.058	70.464			
00:00:22	-1.563	70.464			
00:00:22	-1.885	70.464			
00:00:22	-2.010	70.464			
00:00:22	-2.362	70.464			
00:00:22	-2.419	70.464			
00:00:22	-2.442	70.464			
00:00:22	-2.332	70.464			
00:00:22	-2.074	70.464			
00:00:22	-2.299	70.464			
00:00:22	-2.234	70.464			
00:00:22	-2.223	70.464			
00:00:22	-2.366	70.464			
00:00:22	-2.187	70.464			
00:00:22	-2.462	70.464			
00:00:22	-2.536	70.464			
00:00:22	-2.455	70.464			
00:00:22	-2.389	70.464			
00:00:22	-2.018	70.464			
00:00:22	-2.041	70.464			
00:00:22	-1.873	70.464			
00:00:22	-1.584	70.464			
00:00:22	-1.689	70.464			
00:00:22	-1.445	70.464			
00:00:22	-1.539	70.464			
00:00:22	-1.567	70.464			
00:00:22	-1.341	70.464			
00:00:22	-1.520	70.464			
00:00:22	-1.323	70.464			
00:00:22	-1.073	70.464			
00:00:22	-0.983	70.464			
00:00:22	-0.895	70.464			
00:00:22	-1.198	70.464			
00:00:22	-1.244	70.464			
00:00:22	-1.113	70.464			
00:00:22	-1.140	70.464			
00:00:22	-1.081	70.464			
00:00:22	-1.353	70.464			
00:00:22	-1.349	70.464			
00:00:22	-1.289	70.464			
00:00:22	-1.531	70.464			
00:00:22	-1.382	70.464			
00:00:22	-1.341	70.464			
00:00:22	-0.998	70.464			
00:00:22	-0.348	70.464			
00:00:22	0.223	70.464			
00:00:22	1.560	70.464			
00:00:22	3.134	70.464			
00:00:22	5.001	70.464			
00:00:22	7.154	70.464			
00:00:22	9.143	70.464			
00:00:22	11.212	70.464			
00:00:22	12.905	70.464			
00:00:22	14.160	70.464			
00:00:22	15.559	70.464			
00:00:22	16.319	70.464			
00:00:22	17.108	70.464			
00:00:22	17.431	70.464			
00:00:22	17.281	70.464			
00:00:22	17.283	70.464			
00:00:22	16.744	70.464			
00:00:22	16.132	70.464			
00:00:22	15.507	70.464			
00:00:22	14.457	70.464			
00:00:22	13.749	70.464			
00:00:22	12.735	70.464			
00:00:22	11.741	71.111			
00:00:22	11.131	71.111			
00:00:22	10.217	71.111			
00:00:22	9.584	71.111			
00:00:23	8.687	71.116			
00:00:23	7.755	71.116			
00:00:23	7.181	71.116			
00:00:23	6.078	71.116			
00:00:23	5.105	71.116			
00:00:23	4.213	71.116			
00:00:23	3.251	71.116			
00:00:23	2.434	71.116			
00:00:23	1.288	71.116			
00:00:23	0.661	71.116			
00:00:23	0.199	71.116			
00:00:23	-0.254	71.116			
00:00:23	-0.474	71.116			
00:00:23	-0.783	71.116			
00:00:23	-0.768	71.116			
00:00:23	-0.466	71.116			
00:00:23	-0.463	71.116			
00:00:23	-0.176	71.116			
00:00:23	0.080	71.116			
00:00:23	0.334	71.116			
00:00:23	0.741	71.116			
00:00:23	0.619	71.116			
00:00:23	0.857	71.116			
00:00:23	1.007	71.116			
00:00:23	0.964	71.116			
00:00:23	1.166	71.116			
00:00:23	0.866	71.116			
00:00:23	0.840	71.116			
00:00:23	0.697	71.116			
00:00:23	0.248	71.116			
00:00:23	0.234	71.116			
00:00:23	-0.019	71.116			
00:00:23	-0.119	71.116			
00:00:23	-0.196	71.116			
00:00:23	-0.550	71.116			
00:00:23	-0.556	71.116			
00:00:23	-0.888	71.116			
00:00:23	-0.998	71.116			
00:00:23	-1.143	71.116			
00:00:23	-1.460	71.116			
00:00:23	-1.408	71.116			
00:00:23	-1.698	71.116			
00:00:23	-1.946	71.116			
00:00:23	-1.956	71.116			
00:00:23	-2.239	71.116			
00:00:23	-2.211	71.116			
00:00:23	-2.184	71.116			
00:00:23	-2.151	71.116			
00:00:23	-1.858	71.116			
00:00:23	-2.151	71.116			
00:00:23	-2.096	71.116			
00:00:23	-1.948	71.116			
00:00:23	-2.017	71.116			
00:00:23	-1.836	71.116			
00:00:23	-1.926	71.116			
00:00:23	-1.871	71.116			
00:00:23	-1.626	71.116			
00:00:23	-1.549	71.116			
00:00:23	-1.291	71.116			
00:00:23	-1.392	71.116			
00:00:23	-1.265	71.116			
00:00:23	-0.858	71.116			
00:00:23	-0.921	71.116			
00:00:23	-0.650	71.116			
00:00:23	-0.651	71.116			
00:00:23	-0.713	71.116			
00:00:23	-0.445	71.116			
00:00:23	-0.607	71.116			
00:00:23	-0.432	71.116			
00:00:23	-0.410	71.116			
00:00:23	-0.378	71.116			
00:00:23	-0.157	71.116			
00:00:23	-0.325	71.116			
00:00:23	-0.393	71.116			
00:00:23	-0.526	71.116			
00:00:23	-0.928	71.116			
00:00:23	-0.957	71.116			
00:00:23	-1.122	71.116			
00:00:23	-1.283	71.116			
00:00:23	-1.155	71.116			
00:00:23	-1.254	71.116			
00:00:23	-0.993	71.116			
00:00:23	-0.756	71.116			
00:00:23	-0.127	71.116			
00:00:23	1.085	71.116			
00:00:23	2.429	71.116			
00:00:23	4.504	71.116			
00:00:23	6.450	71.116			
00:00:23	8.357	71.116			
00:00:23	10.520	71.116			
00:00:23	12.454	71.116			
00:00:23	14.206	71.116			
00:00:23	15.680	71.116			
00:00:23	16.656	71.116			
00:00:23	17.540	71.116			
00:00:23	17.864	71.116			
00:00:23	18.007	71.116			
00:00:23	17.737	71.116			
00:00:23	17.131	71.116			
00:00:23	16.750	71.116			
00:00:23	15.994	71.116			
00:00:23	15.256	71.116			
00:00:23	14.716	71.116			
00:00:23	13.788	71.116			
00:00:23	13.013	71.111			
00:00:23	11.910	71.111			
00:00:23	10.810	71.111			
00:00:23	10.140	71.111			
00:00:23	9.250	71.116			
00:00:23	8.381	71.116			
00:00:23	7.454	71.116			
00:00:23	6.524	71.116			
00:00:23	5.929	71.116			
00:00:23	4.951	71.116			
00:00:23	4.252	71.116			
00:00:23	3.433	71.116			
00:00:23	2.573	71.116			
00:00:23	2.119	71.116			
00:00:23	1.315	71.116			
00:00:23	0.743	71.116			
00:00:23	0.472	71.116			
00:00:23	0.035	71.116			
00:00:23	-0.079	71.116			
00:00:23	-0.214	71.116			
00:00:23	-0.164	71.116			
00:00:23	0.082	71.116			
00:00:23	0.058	71.116			
00:00:23	0.515	71.116			
00:00:24	0.831	71.116			
00:00:24	0.984	71.116			
00:00:24	1.238	71.116			
00:00:24	1.029	71.116			
00:00:24	1.345	71.116			
00:00:24	1.476	71.116			
00:00:24	1.095	71.116			
00:00:24	0.911	71.116			
00:00:24	0.661	71.116			
00:00:24	0.667	71.116			
00:00:24	0.695	71.116			
00:00:24	0.422	71.116			
00:00:24	0.320	71.116			
00:00:24	-0.079	71.116			
00:00:24	-0.393	71.116			
00:00:24	-0.497	71.116			
00:00:24	-0.914	71.116			
00:00:24	-0.993	71.116			
00:00:24	-1.300	71.116			
00:00:24	-1.481	71.116			
00:00:24	-1.268	71.116			
00:00:24	-1.543	71.116			
00:00:24	-1.684	71.116			
00:00:24	-1.934	71.116			
00:00:24	-1.963	71.116			
00:00:24	-1.639	71.116			
00:00:24	-1.722	71.116			
00:00:24	-1.704	71.116			
00:00:24	-1.729	71.116			
00:00:24	-1.776	71.116			
00:00:24	-1.497	71.116			
00:00:24	-1.506	71.116			
00:00:24	-1.373	71.116			
00:00:24	-1.204	71.116			
00:00:24	-1.418	71.116			
00:00:24	-1.314	71.116			
00:00:24	-1.281	71.116			
00:00:24	-1.047	71.116			
00:00:24	-0.858	71.116			
00:00:24	-0.946	71.116			
00:00:24	-0.751	71.116			
00:00:24	-0.798	71.116			
00:00:24	-0.775	71.116			
00:00:24	-0.530	71.116			
00:00:24	-0.670	71.116			
00:00:24	-0.468	71.116			
00:00:24	-0.492	71.116			
00:00:24	-0.542	71.116			
00:00:24	-0.293	71.116			
00:00:24	-0.395	71.116			
00:00:24	-0.464	71.116			
00:00:24	-0.483	71.116			
00:00:24	-0.643	71.116			
00:00:24	-0.575	71.116			
00:00:24	-0.822	71.116			
00:00:24	-0.778	71.116			
00:00:24	-0.692	71.116			
00:00:24	-0.940	71.116			
00:00:24	-0.928	71.116			
00:00:24	-1.079	71.116			
00:00:24	-1.181	71.116			
00:00:24	-1.179	71.116			
00:00:24	-1.420	71.116			
00:00:24	-1.282	71.116			
00:00:24	-1.251	71.116			
00:00:24	-0.962	71.116			
00:00:24	0.108	71.116			
00:00:24	1.185	71.116			
00:00:24	2.728	71.116			
00:00:24	4.344	71.116			
00:00:24	6.146	71.116			
00:00:24	8.373	71.116			
00:00:24	10.098	71.116			
00:00:24	11.820	71.116			
00:00:24	13.258	71.116			
00:00:24	14.372	71.116			
00:00:24	15.486	71.116			
00:00:24	16.064	71.116			
00:00:24	16.482	71.116			
00:00:24	16.721	71.116			
00:00:24	16.505	71.116			
00:00:24	16.378	71.116			
00:00:24	15.851	71.116			
00:00:24	15.178	71.116			
00:00:24	14.642	71.116			
00:00:24	13.667	71.116			
00:00:24	13.135	71.116			
00:00:24	12.385	71.116			
00:00:24	11.693	69.189			
00:00:24	11.360	69.189			
00:00:24	10.613	69.189			
00:00:24	10.033	69.189			
00:00:24	9.258	69.194			
00:00:24	8.358	69.194			
00:00:24	7.705	69.194			
00:00:24	6.595	69.194			
00:00:24	5.784	69.194			
00:00:24	5.021	69.194			
00:00:24	4.072	69.194			
00:00:24	3.488	69.194			
00:00:24	2.729	69.194			
00:00:24	2.204	69.194			
00:00:24	1.801	69.194			
00:00:24	1.278	69.194			
00:00:24	1.232	69.194			
00:00:24	1.048	69.194			
00:00:24	0.981	69.194			
00:00:24	1.203	69.194			
00:00:24	1.174	69.194			
00:00:24	1.371	69.194			
00:00:24	1.377	69.194			
00:00:24	1.297	69.194			
00:00:24	1.552	69.194			
00:00:24	1.496	69.194			
00:00:24	1.566	69.194			
00:00:24	1.467	69.194			
00:00:24	1.258	69.194			
00:00:24	1.289	69.194			
00:00:24	0.896	69.194			
00:00:24	0.828	69.194			
00:00:24	0.851	69.194			
00:00:24	0.568	69.194			
00:00:24	0.596	69.194			
00:00:24	0.407	69.194			
00:00:24	0.290	69.194			
00:00:24	0.246	69.194			
00:00:24	-0.169	69.194			
00:00:24	-0.336	69.194			
00:00:25	-0.653	69.194			
00:00:25	-0.926	69.194			
00:00:25	-0.773	69.194			
00:00:25	-1.095	69.194			
00:00:25	-1.160	69.194			
00:00:25	-1.268	69.194			
00:00:25	-1.373	69.194			
00:00:25	-1.227	69.194			
00:00:25	-1.403	69.194			
00:00:25	-1.338	69.194			
00:00:25	-1.279	69.194			
00:00:25	-1.582	69.194			
00:00:25	-1.603	69.194			
00:00:25	-1.697	69.194			
00:00:25	-1.495	69.194			
00:00:25	-1.100	69.194			
00:00:25	-1.082	69.194			
00:00:25	-0.815	69.194			
00:00:25	-0.867	69.194			
00:00:25	-0.893	69.194			
00:00:25	-0.829	69.194			
00:00:25	-0.951	69.194			
00:00:25	-0.761	69.194			
00:00:25	-0.582	69.194			
00:00:25	-0.489	69.194			
00:00:25	-0.268	69.194			
00:00:25	-0.494	69.194			
00:00:25	-0.475	69.194			
00:00:25	-0.332	69.194			
00:00:25	-0.502	69.194			
00:00:25	-0.277	69.194			
00:00:25	-0.232	69.194			
00:00:25	-0.062	69.194			
00:00:25	-0.106	69.194			
00:00:25	-0.529	69.194			
00:00:25	-0.519	69.194			
00:00:25	-0.603	69.194			
00:00:25	-0.614	69.194			
00:00:25	-0.505	69.194			
00:00:25	-0.676	69.194			
00:00:25	-0.592	69.194			
00:00:25	-0.727	69.194			
00:00:25	-0.903	69.194			
00:00:25	-0.628	69.194			
00:00:25	-0.543	69.194			
00:00:25	-0.052	69.194			
00:00:25	0.469	69.194			
00:00:25	1.074	69.194			
00:00:25	2.387	69.194			
00:00:25	3.643	69.194			
00:00:25	5.313	69.194			
00:00:25	7.102	69.194			
00:00:25	8.818	69.194			
00:00:25	11.011	69.194			
00:00:25	12.637	69.194			
00:00:25	14.174	69.194			
00:00:25	15.376	69.194			
00:00:25	15.947	69.194			
00:00:25	16.632	69.194			
00:00:25	16.792	69.194			
00:00:25	16.767	69.194			
00:00:25	16.617	69.194			
00:00:25	15.991	69.194			
00:00:25	15.516	69.194			
00:00:25	14.774	69.194			
00:00:25	13.892	69.194			
00:00:25	13.054	69.194			
00:00:25	11.924	69.194			
00:00:25	11.285	70.459			
00:00:25	10.623	70.459			
00:00:25	9.614	70.459			
00:00:25	9.055	70.459			
00:00:25	8.124	70.464			
00:00:25	7.442	70.464			
00:00:25	6.731	70.464			
00:00:25	5.735	70.464			
00:00:25	5.021	70.464			
00:00:25	4.071	70.464			
00:00:25	3.245	70.464			
00:00:25	2.576	70.464			
00:00:25	1.675	70.464			
00:00:25	1.399	70.464			
00:00:25	0.851	70.464			
00:00:25	0.363	70.464			
00:00:25	0.279	70.464			
00:00:25	-0.022	70.464			
00:00:25	0.278	70.464			
00:00:25	0.373	70.464			
00:00:25	0.488	70.464			
00:00:25	0.880	70.464			
00:00:25	0.671	70.464			
00:00:25	0.866	70.464			
00:00:25	1.059	70.464			
00:00:25	1.080	70.464			
00:00:25	1.386	70.464			
00:00:25	1.309	70.464			
00:00:25	1.400	70.464			
00:00:25	1.483	70.464			
00:00:25	1.220	70.464			
00:00:25	1.226	70.464			
00:00:25	0.899	70.464			
00:00:25	0.790	70.464			
00:00:25	0.663	70.464			
00:00:25	0.359	70.464			
00:00:25	0.398	70.464			
00:00:25	0.170	70.464			
00:00:25	-0.091	70.464			
00:00:25	-0.134	70.464			
00:00:25	-0.421	70.464			
00:00:25	-0.360	70.464			
00:00:25	-0.516	70.464			
00:00:25	-0.809	70.464			
00:00:25	-0.694	70.464			
00:00:25	-1.039	70.464			
00:00:25	-1.103	70.464			
00:00:25	-1.012	70.464			
00:00:25	-1.105	70.464			
00:00:25	-0.969	70.464			
00:00:25	-1.089	70.464			
00:00:25	-1.025	70.464			
00:00:25	-0.959	70.464			
00:00:25	-1.107	70.464			
00:00:25	-0.883	70.464			
00:00:25	-0.965	70.464			
00:00:25	-1.010	70.464			
00:00:25	-0.938	70.464			
00:00:25	-1.042	70.464			
00:00:25	-0.774	70.464			
00:00:26	-0.822	70.464			
00:00:26	-0.708	70.464			
00:00:26	-0.349	70.464			
00:00:26	-0.423	70.464			
00:00:26	-0.268	70.464			
00:00:26	-0.139	70.464			
00:00:26	-0.133	70.464			
00:00:26	0.283	70.464			
00:00:26	0.066	70.464			
00:00:26	0.104	70.464			
00:00:26	-0.035	70.464			
00:00:26	-0.208	70.464			
00:00:26	-0.138	70.464			
00:00:26	-0.343	70.464			
00:00:26	-0.352	70.464			
00:00:26	-0.255	70.464			
00:00:26	-0.479	70.464			
00:00:26	-0.365	70.464			
00:00:26	-0.525	70.464			
00:00:26	-0.550	70.464			
00:00:26	-0.536	70.464			
00:00:26	-0.702	70.464			
00:00:26	-0.434	70.464			
00:00:26	-0.268	70.464			
00:00:26	-0.093	70.464			
00:00:26	0.718	70.464			
00:00:26	1.503	70.464			
00:00:26	2.892	70.464			
00:00:26	4.433	70.464			
00:00:26	5.969	70.464			
00:00:26	7.974	70.464			
00:00:26	9.581	70.464			
00:00:26	11.364	70.464			
00:00:26	13.077	70.464			
00:00:26	14.238	70.464			
00:00:26	15.419	70.464			
00:00:26	16.072	70.464			
00:00:26	16.591	70.464			
00:00:26	16.937	70.464			
00:00:26	16.781	70.464			
00:00:26	16.783	70.464			
00:00:26	16.296	70.464			
00:00:26	15.653	70.464			
00:00:26	15.225	70.464			
00:00:26	14.341	70.464			
00:00:26	13.563	70.464			
00:00:26	12.742	70.464			
00:00:26	11.765	70.464			
00:00:26	11.171	71.776			
00:00:26	10.252	71.776			
00:00:26	9.485	71.776			
00:00:26	8.802	71.776			
00:00:26	7.969	71.781			
00:00:26	7.476	71.781			
00:00:26	6.499	71.781			
00:00:26	5.431	71.781			
00:00:26	4.506	71.781			
00:00:26	3.525	71.781			
00:00:26	3.081	71.781			
00:00:26	2.357	71.781			
00:00:26	1.755	71.781			
00:00:26	1.422	71.781			
00:00:26	0.939	71.781			
00:00:26	0.788	71.781			
00:00:26	0.506	71.781			
00:00:26	0.402	71.781			
00:00:26	0.646	71.781			
00:00:26	0.752	71.781			
00:00:26	1.104	71.781			
00:00:26	1.234	71.781			
00:00:26	1.289	71.781			
00:00:26	1.650	71.781			
00:00:26	1.635	71.781			
00:00:26	1.737	71.781			
00:00:26	1.730	71.781			
00:00:26	1.597	71.781			
00:00:26	1.770	71.781			
00:00:26	1.698	71.781			
00:00:26	1.647	71.781			
00:00:26	1.537	71.781			
00:00:26	1.164	71.781			
00:00:26	1.131	71.781			
00:00:26	0.778	71.781			
00:00:26	0.549	71.781			
00:00:26	0.592	71.781			
00:00:26	0.241	71.781			
00:00:26	0.256	71.781			
00:00:26	-0.018	71.781			
00:00:26	-0.291	71.781			
00:00:26	-0.363	71.781			
00:00:26	-0.748	71.781			
00:00:26	-0.808	71.781			
00:00:26	-0.938	71.781			
00:00:26	-1.089	71.781			
00:00:26	-0.949	71.781			
00:00:26	-1.150	71.781			
00:00:26	-0.948	71.781			
00:00:26	-0.855	71.781			
00:00:26	-1.095	71.781			
00:00:26	-1.037	71.781			
00:00:26	-1.181	71.781			
00:00:26	-1.018	71.781			
00:00:26	-0.784	71.781			
00:00:26	-0.694	71.781			
00:00:26	-0.378	71.781			
00:00:26	-0.379	71.781			
00:00:26	-0.256	71.781			
00:00:26	0.026	71.781			
00:00:26	-0.147	71.781			
00:00:26	-0.126	71.781			
00:00:26	-0.149	71.781			
00:00:26	-0.121	71.781			
00:00:26	0.260	71.781			
00:00:26	0.319	71.781			
00:00:26	0.545	71.781			
00:00:26	0.470	71.781			
00:00:26	0.338	71.781			
00:00:26	0.527	71.781			
00:00:26	0.363	71.781			
00:00:26	0.426	71.781			
00:00:26	0.376	71.781			
00:00:26	0.187	71.781			
00:00:26	0.344	71.781			
00:00:26	0.037	71.781			
00:00:26	-0.015	71.781			
00:00:26	0.013	71.781			
00:00:26	-0.210	71.781			
00:00:26	0.097	71.781			
00:00:27	0.064	71.781			
00:00:27	-0.045	71.781			
00:00:27	0.057	71.781			
00:00:27	-0.079	71.781			
00:00:27	0.157	71.781			
00:00:27	0.577	71.781			
00:00:27	1.269	71.781			
00:00:27	2.667	71.781			
00:00:27	3.845	71.781			
00:00:27	5.550	71.781			
00:00:27	7.339	71.781			
00:00:27	8.936	71.781			
00:00:27	10.922	71.781			
00:00:27	12.519	71.781			
00:00:27	13.994	71.781			
00:00:27	15.338	71.781			
00:00:27	16.168	71.781			
00:00:27	17.016	71.781			
00:00:27	17.467	71.781			
00:00:27	17.735	71.781			
00:00:27	17.802	71.781			
00:00:27	17.451	71.781			
00:00:27	17.178	71.781			
00:00:27	16.460	71.781			
00:00:27	15.720	71.781			
00:00:27	15.103	71.781			
00:00:27	14.021	71.781			
00:00:27	13.240	71.781			
00:00:27	12.399	71.111			
00:00:27	11.539	71.111			
00:00:27	10.853	71.111			
00:00:27	9.917	71.111			
00:00:27	9.229	71.116			
00:00:27	8.587	71.116			
00:00:27	7.802	71.116			
00:00:27	7.186	71.116			
00:00:27	6.282	71.116			
00:00:27	5.589	71.116			
00:00:27	4.879	71.116			
00:00:27	3.866	71.116			
00:00:27	3.269	71.116			
00:00:27	2.361	71.116			
00:00:27	1.782	71.116			
00:00:27	1.614	71.116			
00:00:27	1.360	71.116			
00:00:27	1.402	71.116			
00:00:27	1.284	71.116			
00:00:27	1.237	71.116			
00:00:27	1.386	71.116			
00:00:27	1.299	71.116			
00:00:27	1.586	71.116			
00:00:27	1.726	71.116			
00:00:27	1.793	71.116			
00:00:27	2.076	71.116			
00:00:27	1.817	71.116			
00:00:27	1.796	71.116			
00:00:27	1.791	71.116			
00:00:27	1.534	71.116			
00:00:27	1.640	71.116			
00:00:27	1.425	71.116			
00:00:27	1.261	71.116			
00:00:27	1.083	71.116			
00:00:27	0.734	71.116			
00:00:27	0.847	71.116			
00:00:27	0.726	71.116			
00:00:27	0.467	71.116			
00:00:27	0.339	71.116			
00:00:27	0.055	71.116			
00:00:27	-0.047	71.116			
00:00:27	-0.339	71.116			
00:00:27	-0.490	71.116			
00:00:27	-0.480	71.116			
00:00:27	-0.635	71.116			
00:00:27	-0.389	71.116			
00:00:27	-0.427	71.116			
00:00:27	-0.704	71.116			
00:00:27	-0.597	71.116			
00:00:27	-0.734	71.116			
00:00:27	-0.549	71.116			
00:00:27	-0.529	71.116			
00:00:27	-0.784	71.116			
00:00:27	-0.636	71.116			
00:00:27	-0.696	71.116			
00:00:27	-0.499	71.116			
00:00:27	-0.201	71.116			
00:00:27	-0.381	71.116			
00:00:27	-0.273	71.116			
00:00:27	-0.291	71.116			
00:00:27	-0.326	71.116			
00:00:27	-0.216	71.116			
00:00:27	-0.298	71.116			
00:00:27	-0.182	71.116			
00:00:27	-0.185	71.116			
00:00:27	-0.173	71.116			
00:00:27	0.015	71.116			
00:00:27	0.033	71.116			
00:00:27	0.290	71.116			
00:00:27	0.421	71.116			
00:00:27	0.255	71.116			
00:00:27	0.250	71.116			
00:00:27	0.024	71.116			
00:00:27	0.046	71.116			
00:00:27	0.109	71.116			
00:00:27	-0.077	71.116			
00:00:27	0.079	71.116			
00:00:27	-0.136	71.116			
00:00:27	-0.259	71.116			
00:00:27	-0.219	71.116			
00:00:27	-0.439	71.116			
00:00:27	-0.371	71.116			
00:00:27	-0.607	71.116			
00:00:27	-0.806	71.116			
00:00:27	-0.503	71.116			
00:00:27	-0.368	71.116			
00:00:27	0.033	71.116			
00:00:27	0.230	71.116			
00:00:27	0.425	71.116			
00:00:27	1.166	71.116			
00:00:27	1.841	71.116			
00:00:27	3.190	71.116			
00:00:27	4.665	71.116			
00:00:27	6.076	71.116			
00:00:27	7.951	71.116			
00:00:27	9.641	71.116			
00:00:27	11.512	71.116			
00:00:27	13.119	71.116			
00:00:27	14.166	71.116			
00:00:27	15.391	71.116			
00:00:28	16.148	71.116			
00:00:28	16.744	71.116			
00:00:28	17.161	71.116			
00:00:28	16.916	71.116			
00:00:28	16.940	71.116			
00:00:28	16.566	71.116			
00:00:28	15.939	71.116			
00:00:28	15.499	71.116			
00:00:28	14.677	71.116			
00:00:28	14.016	71.116			
00:00:28	13.337	71.116			
00:00:28	12.539	71.116			
00:00:28	11.803	68.571			
00:00:28	10.778	68.571			
00:00:28	10.011	68.571			
00:00:28	9.259	68.571			
00:00:28	8.338	68.576			
00:00:28	7.845	68.576			
00:00:28	6.954	68.576			
00:00:28	6.109	68.576			
00:00:28	5.438	68.576			
00:00:28	4.438	68.576			
00:00:28	3.729	68.576			
00:00:28	2.898	68.576			
00:00:28	2.238	68.576			
00:00:28	1.781	68.576			
00:00:28	1.111	68.576			
00:00:28	0.805	68.576			
00:00:28	0.494	68.576			
00:00:28	0.220	68.576			
00:00:28	0.258	68.576			
00:00:28	0.094	68.576			
00:00:28	0.230	68.576			
00:00:28	0.335	68.576			
00:00:28	0.400	68.576			
00:00:28	0.731	68.576			
00:00:28	0.871	68.576			
00:00:28	1.317	68.576			
00:00:28	1.547	68.576			
00:00:28	1.561	68.576			
00:00:28	1.784	68.576			
00:00:28	1.530	68.576			
00:00:28	1.441	68.576			
00:00:28	1.455	68.576			
00:00:28	1.064	68.576			
00:00:28	1.009	68.576			
00:00:28	0.668	68.576			
00:00:28	0.391	68.576			
00:00:28	0.350	68.576			
00:00:28	0.003	68.576			
00:00:28	0.025	68.576			
00:00:28	-0.180	68.576			
00:00:28	-0.553	68.576			
00:00:28	-0.569	68.576			
00:00:28	-0.861	68.576			
00:00:28	-0.721	68.576			
00:00:28	-0.711	68.576			
00:00:28	-0.975	68.576			
00:00:28	-0.760	68.576			
00:00:28	-0.994	68.576			
00:00:28	-1.001	68.576			
00:00:28	-0.838	68.576			
00:00:28	-1.098	68.576			
00:00:28	-0.950	68.576			
00:00:28	-1.011	68.576			
00:00:28	-1.015	68.576			
00:00:28	-0.878	68.576			
00:00:28	-0.940	68.576			
00:00:28	-0.708	68.576			
00:00:28	-0.705	68.576			
00:00:28	-0.582	68.576			
00:00:28	-0.310	68.576			
00:00:28	-0.441	68.576			
00:00:28	-0.297	68.576			
00:00:28	-0.387	68.576			
00:00:28	-0.525	68.576			
00:00:28	-0.323	68.576			
00:00:28	-0.350	68.576			
00:00:28	-0.120	68.576			
00:00:28	0.017	68.576			
00:00:28	-0.240	68.576			
00:00:28	0.012	68.576			
00:00:28	-0.064	68.576			
00:00:28	-0.101	68.576			
00:00:28	0.031	68.576			
00:00:28	-0.236	68.576			
00:00:28	-0.172	68.576			
00:00:28	-0.279	68.576			
00:00:28	-0.382	68.576			
00:00:28	-0.304	68.576			
00:00:28	-0.499	68.576			
00:00:28	-0.201	68.576			
00:00:28	-0.176	68.576			
00:00:28	-0.357	68.576			
00:00:28	-0.433	68.576			
00:00:28	-0.765	68.576			
00:00:28	-0.679	68.576			
00:00:28	-0.565	68.576			
00:00:28	-0.656	68.576			
00:00:28	-0.119	68.576			
00:00:28	0.226	68.576			
00:00:28	1.055	68.576			
00:00:28	2.511	68.576			
00:00:28	4.070	68.576			
00:00:28	5.973	68.576			
00:00:28	7.714	68.576			
00:00:28	9.411	68.576			
00:00:28	11.125	68.576			
00:00:28	12.366	68.576			
00:00:28	13.752	68.576			
00:00:28	14.747	68.576			
00:00:28	15.517	68.576			
00:00:28	16.083	68.576			
00:00:28	15.940	68.576			
00:00:28	15.884	68.576			
00:00:28	15.494	68.576			
00:00:28	14.849	68.576			
00:00:28	14.417	68.576			
00:00:28	13.712	68.576			
00:00:28	13.344	68.576			
00:00:28	12.843	68.576			
00:00:28	11.949	68.576			
00:00:28	11.296	68.576			
00:00:28	10.435	68.576			
00:00:28	9.519	69.818			
00:00:28	8.837	69.818			
00:00:28	7.916	69.818			
00:00:28	7.335	69.818			
00:00:29	6.561	69.823			
00:00:29	5.851	69.823			
00:00:29	5.163	69.823			
00:00:29	4.166	69.823			
00:00:29	3.552	69.823			
00:00:29	2.764	69.823			
00:00:29	1.945	69.823			
00:00:29	1.520	69.823			
00:00:29	0.911	69.823			
00:00:29	0.600	69.823			
00:00:29	0.624	69.823			
00:00:29	0.650	69.823			
00:00:29	0.972	69.823			
00:00:29	1.237	69.823			
00:00:29	1.593	69.823			
00:00:29	1.855	69.823			
00:00:29	1.875	69.823			
00:00:29	2.074	69.823			
00:00:29	2.037	69.823			
00:00:29	2.193	69.823			
00:00:29	2.428	69.823			
00:00:29	2.247	69.823			
00:00:29	2.258	69.823			
00:00:29	2.181	69.823			
00:00:29	2.001	69.823			
00:00:29	2.020	69.823			
00:00:29	1.719	69.823			
00:00:29	1.444	69.823			
00:00:29	1.260	69.823			
00:00:29	1.108	69.823			
00:00:29	1.084	69.823			
00:00:29	0.754	69.823			
00:00:29	0.826	69.823			
00:00:29	0.647	69.823			
00:00:29	0.359	69.823			
00:00:29	0.353	69.823			
00:00:29	0.051	69.823			
00:00:29	-0.060	69.823			
00:00:29	-0.046	69.823			
00:00:29	-0.390	69.823			
00:00:29	-0.422	69.823			
00:00:29	-0.527	69.823			
00:00:29	-0.481	69.823			
00:00:29	-0.390	69.823			
00:00:29	-0.541	69.823			
00:00:29	-0.406	69.823			
00:00:29	-0.507	69.823			
00:00:29	-0.468	69.823			
00:00:29	-0.240	69.823			
00:00:29	-0.425	69.823			
00:00:29	-0.311	69.823			
00:00:29	-0.125	69.823			
00:00:29	-0.190	69.823			
00:00:29	0.055	69.823			
00:00:29	0.131	69.823			
00:00:29	0.391	69.823			
00:00:29	0.489	69.823			
00:00:29	0.762	69.823			
00:00:29	1.193	69.823			
00:00:29	1.046	69.823			
00:00:29	1.268	69.823			
00:00:29	1.452	69.823			
00:00:29	1.323	69.823			
00:00:29	1.351	69.823			
00:00:29	1.248	69.823			
00:00:29	1.241	69.823			
00:00:29	1.343	69.823			
00:00:29	1.141	69.823			
00:00:29	1.022	69.823			
00:00:29	0.692	69.823			
00:00:29	0.468	69.823			
00:00:29	0.556	69.823			
00:00:29	0.313	69.823			
00:00:29	0.291	69.823			
00:00:29	0.207	69.823			
00:00:29	0.198	69.823			
00:00:29	0.622	69.823			
00:00:29	1.054	69.823			
00:00:29	1.949	69.823			
00:00:29	3.074	69.823			
00:00:29	4.328	69.823			
00:00:29	6.156	69.823			
00:00:29	7.698	69.823			
00:00:29	9.409	69.823			
00:00:29	11.193	69.823			
00:00:29	12.367	69.823			
00:00:29	13.699	69.823			
00:00:29	14.526	69.823			
00:00:29	15.027	69.823			
00:00:29	15.493	69.823			
00:00:29	15.494	69.823			
00:00:29	15.767	69.823			
00:00:29	15.614	69.823			
00:00:29	15.344	69.823			
00:00:29	15.137	69.823			
00:00:29	14.482	69.823			
00:00:29	14.024	69.823			
00:00:29	13.365	69.823			
00:00:29	12.461	69.823			
00:00:29	11.784	69.823			
00:00:29	10.969	72.453			
00:00:29	10.269	72.453			
00:00:29	9.476	72.453			
00:00:29	8.639	72.453			
00:00:29	7.986	72.458			
00:00:29	7.004	72.458			
00:00:29	6.160	72.458			
00:00:29	5.405	72.458			
00:00:29	4.314	72.458			
00:00:29	3.565	72.458			
00:00:29	2.710	72.458			
00:00:29	1.868	72.458			
00:00:29	1.481	72.458			
00:00:29	0.986	72.458			
00:00:29	0.736	72.458			
00:00:29	0.613	72.458			
00:00:29	0.597	72.458			
00:00:29	0.878	72.458			
00:00:29	0.798	72.458			
00:00:29	1.107	72.458			
00:00:29	1.395	72.458			
00:00:29	1.489	72.458			
00:00:29	1.759	72.458			
00:00:29	1.785	72.458			
00:00:29	1.960	72.458			
00:00:29	1.970	72.458			
00:00:29	1.737	72.458			
00:00:29	1.912	72.458			
00:00:30	1.898	72.458			
00:00:30	1.971	72.458			
00:00:30	1.923	72.458			
00:00:30	1.660	72.458			
00:00:30	1.733	72.458			
00:00:30	1.584	72.458			
00:00:30	1.398	72.458			
00:00:30	1.304	72.458			
00:00:30	0.929	72.458			
00:00:30	0.954	72.458			
00:00:30	0.691	72.458			
00:00:30	0.458	72.458			
00:00:30	0.488	72.458			
00:00:30	0.025	72.458			
00:00:30	-0.148	72.458			
00:00:30	-0.292	72.458			
00:00:30	-0.669	72.458			
00:00:30	-0.788	72.458			
00:00:30	-0.913	72.458			
00:00:30	-0.917	72.458			
00:00:30	-0.874	72.458			
00:00:30	-1.115	72.458			
00:00:30	-0.965	72.458			
00:00:30	-1.086	72.458			
00:00:30	-0.880	72.458			
00:00:30	-0.605	72.458			
00:00:30	-0.779	72.458			
00:00:30	-0.517	72.458			
00:00:30	-0.522	72.458			
00:00:30	-0.528	72.458			
00:00:30	-0.334	72.458			
00:00:30	-0.338	72.458			
00:00:30	-0.144	72.458			
00:00:30	-0.080	72.458			
00:00:30	-0.072	72.458			
00:00:30	0.207	72.458			
00:00:30	0.087	72.458			
00:00:30	0.159	72.458			
00:00:30	0.241	72.458			
00:00:30	-0.022	72.458			
00:00:30	0.145	72.458			
00:00:30	-0.112	72.458			
00:00:30	-0.231	72.458			
00:00:30	-0.193	72.458			
00:00:30	-0.404	72.458			
00:00:30	-0.332	72.458			
00:00:30	-0.409	72.458			
00:00:30	-0.459	72.458			
00:00:30	-0.245	72.458			
00:00:30	-0.416	72.458			
00:00:30	-0.064	72.458			
00:00:30	0.271	72.458			
00:00:30	0.730	72.458			
00:00:30	1.811	72.458			
00:00:30	2.767	72.458			
00:00:30	4.282	72.458			
00:00:30	5.743	72.458			
00:00:30	7.223	72.458			
00:00:30	9.170	72.458			
00:00:30	10.744	72.458			
00:00:30	12.167	72.458			
00:00:30	13.185	72.458			
00:00:30	13.750	72.458			
00:00:30	14.338	72.458			
00:00:30	14.382	72.458			
00:00:30	14.358	72.458			
00:00:30	14.316	72.458			
00:00:30	13.790	72.458			
00:00:30	13.482	72.458			
00:00:30	12.743	72.458			
00:00:30	12.022	72.458			
00:00:30	11.380	72.458			
00:00:30	10.328	72.458			
00:00:30	9.655	72.458			
00:00:30	8.882	72.458			
00:00:30	8.118	72.458			
00:00:30	7.675	75.294			
00:00:30	6.945	75.294			
00:00:30	6.484	75.294			
00:00:30	5.754	75.294			
00:00:30	4.930	75.299			
00:00:30	4.237	75.299			
00:00:30	3.170	75.299			
00:00:30	2.478	75.299			
00:00:30	1.780	75.299			
00:00:30	0.993	75.299			
00:00:30	0.757	75.299			
00:00:30	0.149	75.299			
00:00:30	-0.155	75.299			
00:00:30	-0.138	75.299			
00:00:30	-0.265	75.299			
00:00:30	0.008	75.299			
00:00:30	0.026	75.299			
00:00:30	0.192	75.299			
00:00:30	0.573	75.299			
00:00:30	0.455	75.299			
00:00:30	0.744	75.299			
00:00:30	0.923	75.299			
00:00:30	0.895	75.299			
00:00:30	1.199	75.299			
00:00:30	1.131	75.299			
00:00:30	1.176	75.299			
00:00:30	1.271	75.299			
00:00:30	1.217	75.299			
00:00:30	1.318	75.299			
00:00:30	1.132	75.299			
00:00:30	0.991	75.299			
00:00:30	0.901	75.299			
00:00:30	0.566	75.299			
00:00:30	0.583	75.299			
00:00:30	0.349	75.299			
00:00:30	0.148	75.299			
00:00:30	0.218	75.299			
00:00:30	-0.181	75.299			
00:00:30	-0.212	75.299			
00:00:30	-0.505	75.299			
00:00:30	-0.792	75.299			
00:00:30	-0.689	75.299			
00:00:30	-0.916	75.299			
00:00:30	-0.907	75.299			
00:00:30	-0.954	75.299			
00:00:30	-0.914	75.299			
00:00:30	-0.871	75.299			
00:00:30	-1.169	75.299			
00:00:30	-1.233	75.299			
00:00:30	-1.160	75.299			
00:00:30	-1.326	75.299			
00:00:30	-1.060	75.299			
00:00:31	-1.055	75.299			
00:00:31	-1.084	75.299			
00:00:31	-1.040	75.299			
00:00:31	-1.191	75.299			
00:00:31	-1.047	75.299			
00:00:31	-1.113	75.299			
00:00:31	-1.190	75.299			
00:00:31	-0.842	75.299			
00:00:31	-0.849	75.299			
00:00:31	-0.796	75.299			
00:00:31	-0.836	75.299			
00:00:31	-0.959	75.299			
00:00:31	-0.596	75.299			
00:00:31	-0.533	75.299			
00:00:31	-0.264	75.299			
00:00:31	-0.054	75.299			
00:00:31	-0.103	75.299			
00:00:31	-0.131	75.299			
00:00:31	-0.310	75.299			
00:00:31	-0.315	75.299			
00:00:31	-0.438	75.299			
00:00:31	-0.830	75.299			
00:00:31	-0.743	75.299			
00:00:31	-0.974	75.299			
00:00:31	-1.113	75.299			
00:00:31	-1.038	75.299			
00:00:31	-1.157	75.299			
00:00:31	-0.868	75.299			
00:00:31	-1.046	75.299			
00:00:31	-1.090	75.299			
00:00:31	-0.684	75.299			
00:00:31	-0.311	75.299			
00:00:31	0.715	75.299			
00:00:31	1.846	75.299			
00:00:31	3.141	75.299			
00:00:31	4.805	75.299			
00:00:31	6.151	75.299			
00:00:31	7.974	75.299			
00:00:31	9.729	75.299			
00:00:31	11.121	75.299			
00:00:31	12.645	75.299			
00:00:31	13.542	75.299			
00:00:31	14.292	75.299			
00:00:31	14.779	75.299			
00:00:31	14.683	75.299			
00:00:31	14.788	75.299			
00:00:31	14.450	75.299			
00:00:31	13.920	75.299			
00:00:31	13.580	75.299			
00:00:31	12.899	75.299			
00:00:31	12.474	75.299			
00:00:31	11.648	75.299			
00:00:31	10.800	75.299			
00:00:31	10.136	75.299			
00:00:31	9.073	75.299			
00:00:31	8.459	75.299			
00:00:31	7.744	71.111			
00:00:31	6.903	71.111			
00:00:31	6.419	71.111			
00:00:31	5.505	71.111			
00:00:31	4.866	71.116			
00:00:31	4.264	71.116			
00:00:31	3.325	71.116			
00:00:31	2.456	71.116			
00:00:31	1.630	71.116			
00:00:31	0.956	71.116			
00:00:31	0.342	71.116			
00:00:31	-0.079	71.116			
00:00:31	-0.131	71.116			
00:00:31	-0.459	71.116			
00:00:31	-0.610	71.116			
00:00:31	-0.553	71.116			
00:00:31	-0.737	71.116			
00:00:31	-0.374	71.116			
00:00:31	-0.253	71.116			
00:00:31	-0.191	71.116			
00:00:31	0.185	71.116			
00:00:31	0.134	71.116			
00:00:31	0.245	71.116			
00:00:31	0.288	71.116			
00:00:31	0.168	71.116			
00:00:31	0.398	71.116			
00:00:31	0.136	71.116			
00:00:31	-0.034	71.116			
00:00:31	-0.035	71.116			
00:00:31	-0.289	71.116			
00:00:31	-0.158	71.116			
00:00:31	-0.294	71.116			
00:00:31	-0.410	71.116			
00:00:31	-0.505	71.116			
00:00:31	-0.967	71.116			
00:00:31	-1.122	71.116			
00:00:31	-1.362	71.116			
00:00:31	-1.455	71.116			
00:00:31	-1.650	71.116			
00:00:31	-2.156	71.116			
00:00:31	-2.122	71.116			
00:00:31	-2.382	71.116			
00:00:31	-2.579	71.116			
00:00:31	-2.550	71.116			
00:00:31	-2.715	71.116			
00:00:31	-2.458	71.116			
00:00:31	-2.347	71.116			
00:00:31	-2.584	71.116			
00:00:31	-2.531	71.116			
00:00:31	-2.653	71.116			
00:00:31	-2.651	71.116			
00:00:31	-2.668	71.116			
00:00:31	-2.923	71.116			
00:00:31	-2.769	71.116			
00:00:31	-2.867	71.116			
00:00:31	-3.098	71.116			
00:00:31	-3.210	71.116			
00:00:31	-3.398	71.116			
00:00:31	-3.285	71.116			
00:00:31	-3.390	71.116			
00:00:31	-3.539	71.116			
00:00:31	-3.390	71.116			
00:00:31	-3.504	71.116			
00:00:31	-3.270	71.116			
00:00:31	-3.393	71.116			
00:00:31	-3.384	71.116			
00:00:31	-3.009	71.116			
00:00:31	-2.931	71.116			
00:00:31	-2.637	71.116			
00:00:31	-2.522	71.116			
00:00:31	-2.484	71.116			
00:00:31	-2.285	71.116			
00:00:32	-2.437	73.851			
00:00:32	-2.485	73.851			
00:00:32	-2.518	73.851			
00:00:32	-2.659	73.851			
00:00:32	-2.481	73.851			
00:00:32	-2.703	73.851			
00:00:32	-2.933	73.851			
00:00:32	-2.958	73.851			
00:00:32	-3.216	73.851			
00:00:32	-3.088	73.851			
00:00:32	-3.216	73.851			
00:00:32	-3.424	73.851			
00:00:32	-3.077	73.851			
00:00:32	-2.921	73.851			
00:00:32	-2.208	73.851			
00:00:32	-1.503	73.851			
00:00:32	-0.499	73.851			
00:00:32	1.044	73.851			
00:00:32	2.351	73.851			
00:00:32	3.920	73.851			
00:00:32	5.443	73.851			
00:00:32	6.691	73.851			
00:00:32	8.239	73.851			
00:00:32	9.238	73.851			
00:00:32	10.115	73.851			
00:00:32	10.847	73.851			
00:00:32	11.085	73.851			
00:00:32	11.504	73.851			
00:00:32	11.454	73.851			
00:00:32	11.303	73.851			
00:00:32	11.132	73.851			
00:00:32	10.403	73.851			
00:00:32	9.926	73.851			
00:00:32	9.131	73.851			
00:00:32	8.503	73.851			
00:00:32	8.224	73.851			
00:00:32	7.450	113.726			
00:00:32	6.919	113.726			
00:00:32	6.186	113.726			
00:00:32	5.285	113.726			
00:00:32	4.842	113.726			
00:00:32	3.982	113.726			
00:00:32	3.372	113.726			
00:00:32	2.954	113.726			
00:00:32	2.182	113.726			
00:00:32	1.741	113.726			
00:00:32	1.089	113.726			
00:00:32	0.460	113.726			
00:00:32	-0.069	113.726			
00:00:32	-0.728	113.726			
00:00:32	-0.988	113.726			
00:00:32	-1.307	113.726			
00:00:32	-1.638	113.726			
00:00:32	-1.660	113.726			
00:00:32	-1.775	113.726			
00:00:32	-1.604	113.726			
00:00:32	-1.419	113.726			
00:00:32	-1.404	113.726			
00:00:32	-1.225	113.726			
00:00:32	-1.232	113.726			
00:00:32	-1.006	113.726			
00:00:32	-0.880	113.726			
00:00:32	-0.828	113.726			
00:00:32	-0.515	113.726			
00:00:32	-0.701	113.726			
00:00:32	-0.654	113.726			
00:00:32	-0.649	113.726			
00:00:32	-0.935	113.726			
00:00:32	-0.901	113.726			
00:00:32	-1.276	113.726			
00:00:32	-1.510	113.726			
00:00:32	-1.646	113.726			
00:00:32	-1.994	113.726			
00:00:32	-2.072	113.726			
00:00:32	-2.152	113.726			
00:00:32	-2.308	113.726			
00:00:32	-2.373	113.726			
00:00:32	-2.879	113.726			
00:00:32	-2.950	113.726			
00:00:32	-3.105	113.726			
00:00:32	-3.501	113.726			
00:00:32	-3.404	113.726			
00:00:32	-3.512	113.726			
00:00:32	-3.355	113.726			
00:00:32	-3.305	113.726			
00:00:32	-3.436	113.726			
00:00:32	-3.009	113.726			
00:00:32	-3.076	113.726			
00:00:32	-3.185	113.726			
00:00:32	-3.136	113.726			
00:00:32	-3.155	113.726			
00:00:32	-3.027	113.726			
00:00:32	-3.462	113.726			
00:00:32	-3.732	113.726			
00:00:32	-3.860	113.726			
00:00:32	-4.053	113.726			
00:00:32	-4.048	113.726			
00:00:32	-4.082	113.726			
00:00:32	-4.018	113.726			
00:00:32	-3.716	113.726			
00:00:32	-3.850	113.726			
00:00:32	-3.613	113.726			
00:00:32	-3.487	113.726			
00:00:32	-3.658	113.726			
00:00:32	-3.426	113.726			
00:00:32	-3.599	113.726			
00:00:32	-3.431	113.726			
00:00:32	-3.365	113.726			
00:00:32	-3.570	113.726			
00:00:32	-3.457	113.726			
00:00:32	-3.448	113.726			
00:00:32	-3.336	113.726			
00:00:32	-3.213	113.726			
00:00:32	-3.476	113.726			
00:00:32	-3.336	113.726			
00:00:32	-3.437	113.726			
00:00:32	-3.536	113.726			
00:00:32	-3.409	113.726			
00:00:32	-3.596	113.726			
00:00:32	-3.464	113.726			
00:00:32	-3.677	113.726			
00:00:32	-3.890	113.726			
00:00:32	-3.713	113.726			
00:00:32	-4.033	113.726			
00:00:32	-4.162	113.726			
00:00:32	-4.259	113.726			
00:00:32	-4.336	113.726			
00:00:32	-3.809	113.726			
00:00:33	-3.408	113.726			
00:00:33	-2.511	113.726			
00:00:33	-1.364	113.726			
00:00:33	-0.260	113.726			
00:00:33	1.216	113.726			
00:00:33	2.496	113.726			
00:00:33	3.800	113.726			
00:00:33	5.165	113.726			
00:00:33	6.131	113.726			
00:00:33	7.189	113.726			
00:00:33	7.734	113.726			
00:00:33	7.962	113.726			
00:00:33	8.226	113.726			
00:00:33	8.005	113.726			
00:00:33	7.923	113.726			
00:00:33	7.491	113.726			
00:00:33	7.100	113.726			
00:00:33	6.959	113.726			
00:00:33	6.362	113.726			
00:00:33	6.023	113.726			
00:00:33	5.615	90.845			
00:00:33	5.083	90.845			
00:00:33	4.737	90.845			
00:00:33	3.982	90.845			
00:00:33	3.523	90.845			
00:00:33	3.139	90.845			
00:00:33	2.643	90.845			
00:00:33	2.539	90.845			
00:00:33	1.984	90.845			
00:00:33	1.479	90.845			
00:00:33	1.068	90.845			
00:00:33	0.482	90.845			
00:00:33	0.233	90.845			
00:00:33	-0.256	90.845			
00:00:33	-0.777	90.845			
00:00:33	-0.968	90.845			
00:00:33	-1.472	90.845			
00:00:33	-1.588	90.845			
00:00:33	-1.682	90.845			
00:00:33	-1.715	90.845			
00:00:33	-1.507	90.845			
00:00:33	-1.614	90.845			
00:00:33	-1.462	90.845			
00:00:33	-1.409	90.845			
00:00:33	-1.600	90.845			
00:00:33	-1.321	90.845			
00:00:33	-1.150	90.845			
00:00:33	-0.933	90.845			
00:00:33	-0.827	90.845			
00:00:33	-1.109	90.845			
00:00:33	-1.097	90.845			
00:00:33	-1.364	90.845			
00:00:33	-1.470	90.845			
00:00:33	-1.396	90.845			
00:00:33	-1.526	90.845			
00:00:33	-1.476	90.845			
00:00:33	-1.734	90.845			
00:00:33	-1.958	90.845			
00:00:33	-2.064	90.845			
00:00:33	-2.395	90.845			
00:00:33	-2.478	90.845			
00:00:33	-2.438	90.845			
00:00:33	-2.545	90.845			
00:00:33	-2.547	90.845			
00:00:33	-2.849	90.845			
00:00:33	-2.953	90.845			
00:00:33	-3.037	90.845			
00:00:33	-3.217	90.845			
00:00:33	-3.183	90.845			
00:00:33	-3.346	90.845			
00:00:33	-3.401	90.845			
00:00:33	-3.288	90.845			
00:00:33	-3.454	90.845			
00:00:33	-3.332	90.845			
00:00:33	-3.529	90.845			
00:00:33	-3.615	90.845			
00:00:33	-3.490	90.845			
00:00:33	-3.683	90.845			
00:00:33	-3.558	90.845			
00:00:33	-3.312	90.845			
00:00:33	-3.379	90.845			
00:00:33	-3.338	90.845			
00:00:33	-3.588	90.845			
00:00:33	-3.485	90.845			
00:00:33	-3.389	90.845			
00:00:33	-3.739	90.845			
00:00:33	-3.672	90.845			
00:00:33	-3.711	90.845			
00:00:33	-3.557	90.845			
00:00:33	-3.522	90.845			
00:00:33	-3.746	90.845			
00:00:33	-3.468	90.845			
00:00:33	-3.681	90.845			
00:00:33	-3.699	90.845			
00:00:33	-3.361	90.845			
00:00:33	-3.373	90.845			
00:00:33	-3.309	90.845			
00:00:33	-3.485	90.845			
00:00:33	-3.741	90.845			
00:00:33	-3.608	90.845			
00:00:33	-3.687	90.845			
00:00:33	-3.543	90.845			
00:00:33	-3.571	90.845			
00:00:33	-3.815	90.845			
00:00:33	-3.766	90.845			
00:00:33	-4.096	90.845			
00:00:33	-4.157	90.845			
00:00:33	-4.114	90.845			
00:00:33	-4.249	90.845			
00:00:33	-4.195	90.845			
00:00:33	-4.282	90.845			
00:00:33	-4.024	90.845			
00:00:33	-3.817	90.845			
00:00:33	-4.051	90.845			
00:00:33	-4.092	90.845			
00:00:33	-4.197	90.845			
00:00:33	-3.978	90.845			
00:00:33	-3.227	90.845			
00:00:33	-2.507	90.845			
00:00:33	-1.059	90.845			
00:00:33	0.298	90.845			
00:00:33	1.672	90.845			
00:00:33	3.280	90.845			
00:00:33	4.261	90.845			
00:00:33	5.270	90.845			
00:00:33	5.883	90.845			
00:00:33	6.343	90.845			
00:00:33	6.840	90.845			
00:00:34	6.726	90.845			
00:00:34	6.695	90.845			
00:00:34	6.579	90.845			
00:00:34	6.140	90.845			
00:00:34	5.921	90.845			
00:00:34	5.348	90.845			
00:00:34	4.899	90.845			
00:00:34	4.499	90.845			
00:00:34	3.783	90.845			
00:00:34	3.334	90.845			
00:00:34	2.887	90.845			
00:00:34	2.393	90.845			
00:00:34	2.087	65.641			
00:00:34	1.590	65.641			
00:00:34	1.412	65.641			
00:00:34	1.051	65.641			
00:00:34	0.633	65.646			
00:00:34	0.359	65.646			
00:00:34	0.014	65.646			
00:00:34	-0.183	65.646			
00:00:34	-0.633	65.646			
00:00:34	-1.053	65.646			
00:00:34	-1.196	65.646			
00:00:34	-1.621	65.646			
00:00:34	-1.804	65.646			
00:00:34	-1.932	65.646			
00:00:34	-2.201	65.646			
00:00:34	-2.189	65.646			
00:00:34	-2.449	65.646			
00:00:34	-2.409	65.646			
00:00:34	-2.207	65.646			
00:00:34	-2.396	65.646			
00:00:34	-2.182	65.646			
00:00:34	-2.003	65.646			
00:00:34	-1.804	65.646			
00:00:34	-1.602	65.646			
00:00:34	-1.885	65.646			
00:00:34	-1.841	65.646			
00:00:34	-1.802	65.646			
00:00:34	-1.938	65.646			
00:00:34	-1.679	65.646			
00:00:34	-1.774	65.646			
00:00:34	-1.769	65.646			
00:00:34	-1.899	65.646			
00:00:34	-2.230	65.646			
00:00:34	-2.237	65.646			
00:00:34	-2.410	65.646			
00:00:34	-2.348	65.646			
00:00:34	-2.373	65.646			
00:00:34	-2.598	65.646			
00:00:34	-2.550	65.646			
00:00:34	-2.670	65.646			
00:00:34	-2.658	65.646			
00:00:34	-2.646	65.646			
00:00:34	-3.222	65.646			
00:00:34	-3.190	65.646			
00:00:34	-3.342	65.646			
00:00:34	-3.415	65.646			
00:00:34	-3.453	65.646			
00:00:34	-3.681	65.646			
00:00:34	-3.682	65.646			
00:00:34	-3.752	65.646			
00:00:34	-3.746	65.646			
00:00:34	-3.665	65.646			
00:00:34	-4.039	65.646			
00:00:34	-4.137	65.646			
00:00:34	-3.990	65.646			
00:00:34	-4.160	65.646			
00:00:34	-4.015	65.646			
00:00:34	-4.224	65.646			
00:00:34	-4.108	65.646			
00:00:34	-3.933	65.646			
00:00:34	-3.970	65.646			
00:00:34	-3.620	65.646			
00:00:34	-3.641	65.646			
00:00:34	-3.724	65.646			
00:00:34	-3.643	65.646			
00:00:34	-3.732	65.646			
00:00:34	-3.529	65.646			
00:00:34	-3.444	65.646			
00:00:34	-3.584	65.646			
00:00:34	-3.530	65.646			
00:00:34	-3.701	65.646			
00:00:34	-3.505	65.646			
00:00:34	-3.529	65.646			
00:00:34	-3.845	65.646			
00:00:34	-3.963	65.646			
00:00:34	-4.101	65.646			
00:00:34	-4.003	65.646			
00:00:34	-3.898	65.646			
00:00:34	-4.056	65.646			
00:00:34	-3.980	65.646			
00:00:34	-4.252	65.646			
00:00:34	-4.400	65.646			
00:00:34	-4.529	65.646			
00:00:34	-4.870	65.646			
00:00:34	-4.808	65.646			
00:00:34	-4.875	65.646			
00:00:34	-4.974	65.646			
00:00:34	-4.868	65.646			
00:00:34	-5.160	65.646			
00:00:34	-5.088	65.646			
00:00:34	-5.099	65.646			
00:00:34	-5.020	65.646			
00:00:34	-4.467	65.646			
00:00:34	-4.053	65.646			
00:00:34	-3.226	65.646			
00:00:34	-2.369	65.646			
00:00:34	-1.302	65.646			
00:00:34	0.145	65.646			
00:00:34	1.405	65.646			
00:00:34	2.560	65.646			
00:00:34	3.697	65.646			
00:00:34	4.368	65.646			
00:00:34	5.224	65.646			
00:00:34	5.448	65.646			
00:00:34	5.592	65.646			
00:00:34	5.498	65.646			
00:00:34	5.026	65.646			
00:00:34	5.064	65.646			
00:00:34	4.707	65.646			
00:00:34	4.305	65.646			
00:00:34	4.032	65.646			
00:00:34	3.418	65.646			
00:00:34	3.361	65.646			
00:00:34	3.109	65.646			
00:00:34	2.534	65.646			
00:00:34	2.231	65.646			
00:00:35	1.514	66.207			
00:00:35	1.077	66.207			
00:00:35	0.577	66.207			
00:00:35	-0.016	66.207			
00:00:35	-0.299	66.212			
00:00:35	-0.866	66.212			
00:00:35	-1.233	66.212			
00:00:35	-1.489	66.212			
00:00:35	-2.007	66.212			
00:00:35	-2.016	66.212			
00:00:35	-2.357	66.212			
00:00:35	-2.606	66.212			
00:00:35	-2.824	66.212			
00:00:35	-3.217	66.212			
00:00:35	-3.192	66.212			
00:00:35	-3.314	66.212			
00:00:35	-3.412	66.212			
00:00:35	-3.181	66.212			
00:00:35	-3.184	66.212			
00:00:35	-2.856	66.212			
00:00:35	-2.714	66.212			
00:00:35	-2.544	66.212			
00:00:35	-2.065	66.212			
00:00:35	-2.077	66.212			
00:00:35	-1.751	66.212			
00:00:35	-1.725	66.212			
00:00:35	-1.949	66.212			
00:00:35	-1.679	66.212			
00:00:35	-1.763	66.212			
00:00:35	-1.608	66.212			
00:00:35	-1.413	66.212			
00:00:35	-1.623	66.212			
00:00:35	-1.706	66.212			
00:00:35	-2.038	66.212			
00:00:35	-2.203	66.212			
00:00:35	-2.184	66.212			
00:00:35	-2.489	66.212			
00:00:35	-2.409	66.212			
00:00:35	-2.692	66.212			
00:00:35	-2.896	66.212			
00:00:35	-2.856	66.212			
00:00:35	-3.128	66.212			
00:00:35	-3.133	66.212			
00:00:35	-3.358	66.212			
00:00:35	-3.599	66.212			
00:00:35	-3.447	66.212			
00:00:35	-3.596	66.212			
00:00:35	-3.542	66.212			
00:00:35	-3.509	66.212			
00:00:35	-3.744	66.212			
00:00:35	-3.676	66.212			
00:00:35	-3.721	66.212			
00:00:35	-3.618	66.212			
00:00:35	-3.576	66.212			
00:00:35	-3.746	66.212			
00:00:35	-3.751	66.212			
00:00:35	-3.816	66.212			
00:00:35	-3.699	66.212			
00:00:35	-3.399	66.212			
00:00:35	-3.726	66.212			
00:00:35	-3.567	66.212			
00:00:35	-3.652	66.212			
00:00:35	-3.821	66.212			
00:00:35	-3.574	66.212			
00:00:35	-3.819	66.212			
00:00:35	-3.864	66.212			
00:00:35	-3.971	66.212			
00:00:35	-3.977	66.212			
00:00:35	-3.690	66.212			
00:00:35	-3.713	66.212			
00:00:35	-3.681	66.212			
00:00:35	-3.733	66.212			
00:00:35	-3.846	66.212			
00:00:35	-3.677	66.212			
00:00:35	-3.925	66.212			
00:00:35	-4.095	66.212			
00:00:35	-4.046	66.212			
00:00:35	-4.271	66.212			
00:00:35	-4.274	66.212			
00:00:35	-4.485	66.212			
00:00:35	-4.531	66.212			
00:00:35	-4.295	66.212			
00:00:35	-4.611	66.212			
00:00:35	-4.642	66.212			
00:00:35	-4.906	66.212			
00:00:35	-5.131	66.212			
00:00:35	-4.908	66.212			
00:00:35	-5.024	66.212			
00:00:35	-4.675	66.212			
00:00:35	-4.371	66.212			
00:00:35	-4.172	66.212			
00:00:35	-3.566	66.212			
00:00:35	-3.033	66.212			
00:00:35	-1.924	66.212			
00:00:35	-0.528	66.212			
00:00:35	0.808	66.212			
00:00:35	2.516	66.212			
00:00:35	3.531	66.212			
00:00:35	4.303	66.212			
00:00:35	5.005	66.212			
00:00:35	5.412	66.212			
00:00:35	5.889	66.212			
00:00:35	5.947	66.212			
00:00:35	5.760	66.212			
00:00:35	5.595	66.212			
00:00:35	5.022	66.212			
00:00:35	4.759	66.212			
00:00:35	4.207	66.212			
00:00:35	3.651	66.212			
00:00:35	3.439	66.212			
00:00:35	2.780	66.212			
00:00:35	2.479	66.212			
00:00:35	2.041	67.965			
00:00:35	1.505	67.965			
00:00:35	1.427	67.965			
00:00:35	1.032	67.965			
00:00:35	0.786	67.970			
00:00:35	0.395	67.970			
00:00:35	-0.183	67.970			
00:00:35	-0.331	67.970			
00:00:35	-1.018	67.970			
00:00:35	-1.464	67.970			
00:00:35	-1.644	67.970			
00:00:35	-1.992	67.970			
00:00:35	-2.164	67.970			
00:00:35	-2.459	67.970			
00:00:35	-2.757	67.970			
00:00:35	-2.827	67.970			
00:00:36	-3.050	67.970			
00:00:36	-2.817	67.970			
00:00:36	-2.468	67.970			
00:00:36	-2.382	67.970			
00:00:36	-2.019	67.970			
00:00:36	-2.037	67.970			
00:00:36	-1.862	67.970			
00:00:36	-1.749	67.970			
00:00:36	-1.899	67.970			
00:00:36	-1.478	67.970			
00:00:36	-1.480	67.970			
00:00:36	-1.560	67.970			
00:00:36	-1.806	67.970			
00:00:36	-2.289	67.970			
00:00:36	-2.118	67.970			
00:00:36	-2.236	67.970			
00:00:36	-2.428	67.970			
00:00:36	-2.413	67.970			
00:00:36	-2.857	67.970			
00:00:36	-2.915	67.970			
00:00:36	-3.177	67.970			
00:00:36	-3.321	67.970			
00:00:36	-3.006	67.970			
00:00:36	-3.255	67.970			
00:00:36	-3.198	67.970			
00:00:36	-3.152	67.970			
00:00:36	-3.268	67.970			
00:00:36	-3.090	67.970			
00:00:36	-3.390	67.970			
00:00:36	-3.427	67.970			
00:00:36	-3.247	67.970			
00:00:36	-3.484	67.970			
00:00:36	-3.291	67.970			
00:00:36	-3.563	67.970			
00:00:36	-3.695	67.970			
00:00:36	-3.587	67.970			
00:00:36	-3.762	67.970			
00:00:36	-3.644	67.970			
00:00:36	-3.834	67.970			
00:00:36	-3.862	67.970			
00:00:36	-3.764	67.970			
