RAW Data export file (tab separated)


Client:	,kozawa
Session:	kozawa rest 
Date:	13-07-2020
Time:	10:11:44
Duration:	92	Seconds.
Output rate:	128	Samples/sec.

hh:mm:ss	32 SPS	128 SPS	
TIME	Sensor-E:SC/GSR	Sensor-G:BVP	Events	Segments	


00:00:00	1.120	0.118			
00:00:00	1.120	1.677			
00:00:00	1.120	3.247			
00:00:00	1.120	5.180			
00:00:00	1.120	6.134			
00:00:00	1.120	6.881			
00:00:00	1.120	7.447			
00:00:00	1.120	7.656			
00:00:00	1.119	7.851			
00:00:00	1.119	7.395			
00:00:00	1.119	6.889			
00:00:00	1.119	6.250			
00:00:00	1.119	4.764			
00:00:00	1.119	3.624			
00:00:00	1.119	2.208			
00:00:00	1.119	0.509			
00:00:00	1.119	-0.927			
00:00:00	1.119	-2.458			
00:00:00	1.119	-3.731			
00:00:00	1.119	-5.030			
00:00:00	1.119	-6.545			
00:00:00	1.119	-7.698			
00:00:00	1.119	-8.613			
00:00:00	1.119	-8.605			
00:00:00	1.118	-8.572			
00:00:00	1.118	-8.231			
00:00:00	1.118	-6.770			
00:00:00	1.118	-5.487			
00:00:00	1.118	-3.873			
00:00:00	1.118	-2.343			
00:00:00	1.118	-1.292			
00:00:00	1.118	0.437			
00:00:00	1.118	2.043			
00:00:00	1.118	3.318			
00:00:00	1.118	4.120			
00:00:00	1.118	4.109			
00:00:00	1.118	4.194			
00:00:00	1.118	3.890			
00:00:00	1.118	3.522			
00:00:00	1.118	3.022			
00:00:00	1.117	1.937			
00:00:00	1.117	0.906			
00:00:00	1.117	-0.270			
00:00:00	1.117	-1.786			
00:00:00	1.117	-3.044			
00:00:00	1.117	-4.678			
00:00:00	1.117	-5.567			
00:00:00	1.117	-6.088			
00:00:00	1.117	-6.805			
00:00:00	1.117	-7.068			
00:00:00	1.117	-7.300			
00:00:00	1.117	-7.464			
00:00:00	1.117	-7.086			
00:00:00	1.117	-6.233			
00:00:00	1.117	-4.588			
00:00:00	1.117	-3.319			
00:00:00	1.116	-2.156			
00:00:00	1.116	-0.598			
00:00:00	1.116	0.819			
00:00:00	1.116	2.427			
00:00:00	1.116	4.091			
00:00:00	1.116	5.421			
00:00:00	1.116	6.596			
00:00:00	1.116	7.535			
00:00:00	1.116	8.964			
00:00:00	1.116	10.494			
00:00:00	1.116	12.174			
00:00:00	1.116	13.634			
00:00:00	1.116	14.611			
00:00:00	1.116	15.709			
00:00:00	1.116	16.586			
00:00:00	1.116	17.110			
00:00:00	1.115	17.757			
00:00:00	1.115	17.998			
00:00:00	1.115	18.110			
00:00:00	1.115	17.780			
00:00:00	1.115	17.319			
00:00:00	1.115	17.367			
00:00:00	1.115	17.655			
00:00:00	1.115	17.832			
00:00:00	1.115	18.090			
00:00:00	1.115	18.028			
00:00:00	1.115	17.969			
00:00:00	1.115	18.138			
00:00:00	1.114	18.917			
00:00:00	1.114	19.662			
00:00:00	1.114	19.913			
00:00:00	1.114	19.327			
00:00:00	1.114	18.273			
00:00:00	1.114	16.606			
00:00:00	1.114	14.623			
00:00:00	1.114	12.191			
00:00:00	1.114	9.502			
00:00:00	1.114	6.873			
00:00:00	1.114	3.971			
00:00:00	1.114	1.459			
00:00:00	1.114	-0.652			
00:00:00	1.114	-2.438			
00:00:00	1.114	-3.588			
00:00:00	1.114	-4.487			
00:00:00	1.113	-4.664			
00:00:00	1.113	-4.550			
00:00:00	1.113	0.812			
00:00:00	1.113	6.149			
00:00:00	1.112	3.536			
00:00:00	1.112	0.952			
00:00:00	1.112	-8.159			
00:00:00	1.112	-8.051			
00:00:00	1.111	-7.778			
00:00:00	1.111	-6.854			
00:00:00	1.111	-5.902			
00:00:00	1.111	-4.881			
00:00:00	1.111	-3.463			
00:00:00	1.111	-2.335			
00:00:00	1.111	-0.731			
00:00:00	1.111	1.040			
00:00:00	1.111	2.165			
00:00:00	1.111	3.297			
00:00:00	1.111	3.980			
00:00:00	1.111	4.436			
00:00:00	1.110	3.763			
00:00:00	1.110	2.769			
00:00:00	1.110	1.846			
00:00:00	1.110	0.605			
00:00:00	1.110	-0.769			
00:00:00	1.110	-1.921			
00:00:00	1.110	-6.529			
00:00:00	1.110	-5.780			
00:00:01	1.109	-6.171			
00:00:01	1.109	-0.399			
00:00:01	1.109	2.723			
00:00:01	1.109	5.194			
00:00:01	1.108	6.309			
00:00:01	1.108	8.006			
00:00:01	1.108	9.654			
00:00:01	1.108	10.970			
00:00:01	1.108	12.519			
00:00:01	1.108	13.793			
00:00:01	1.108	15.078			
00:00:01	1.108	16.417			
00:00:01	1.107	15.864			
00:00:01	1.107	15.524			
00:00:01	1.107	15.756			
00:00:01	1.107	16.550			
00:00:01	1.106	16.860			
00:00:01	1.106	15.129			
00:00:01	1.106	16.860			
00:00:01	1.106	15.129			
00:00:01	1.105	0.469			
00:00:01	1.105	-6.007			
00:00:01	1.105	-5.811			
00:00:01	1.105	-0.749			
00:00:01	1.104	7.905			
00:00:01	1.104	7.642			
00:00:01	1.104	6.864			
00:00:01	1.104	5.892			
00:00:01	1.103	0.852			
00:00:01	1.103	-1.478			
00:00:01	1.103	-4.647			
00:00:01	1.103	-3.363			
00:00:01	1.103	-3.254			
00:00:01	1.103	-3.180			
00:00:01	1.103	-3.216			
00:00:01	1.103	-2.607			
00:00:01	1.102	-2.503			
00:00:01	1.102	-1.660			
00:00:01	1.102	-1.626			
00:00:01	1.102	-1.466			
00:00:01	1.102	-1.878			
00:00:01	1.102	-1.482			
00:00:01	1.102	-1.286			
00:00:01	1.102	-1.138			
00:00:01	1.101	-1.256			
00:00:01	1.101	-1.675			
00:00:01	1.101	-0.846			
00:00:01	1.101	-1.085			
00:00:01	1.101	-1.178			
00:00:01	1.101	-1.148			
00:00:01	1.101	-0.831			
00:00:01	1.101	-0.856			
00:00:01	1.100	-1.112			
00:00:01	1.100	-1.001			
00:00:01	1.100	-1.164			
00:00:01	1.100	-1.261			
00:00:01	1.100	-1.552			
00:00:01	1.100	-1.651			
00:00:01	1.100	-0.915			
00:00:01	1.100	0.312			
00:00:01	1.100	1.651			
00:00:01	1.100	2.757			
00:00:01	1.100	4.846			
00:00:01	1.100	7.313			
00:00:01	1.099	19.461			
00:00:01	1.099	20.999			
00:00:01	1.099	22.588			
00:00:01	1.099	24.120			
00:00:01	1.099	23.235			
00:00:01	1.099	22.432			
00:00:01	1.099	22.014			
00:00:01	1.099	20.462			
00:00:01	1.098	21.415			
00:00:01	1.098	20.462			
00:00:01	1.098	19.492			
00:00:01	1.098	18.298			
00:00:01	1.098	17.429			
00:00:01	1.098	16.404			
00:00:01	1.098	15.039			
00:00:01	1.098	14.190			
00:00:01	1.098	13.124			
00:00:01	1.098	12.207			
00:00:01	1.098	5.044			
00:00:01	1.098	3.414			
00:00:01	1.097	2.381			
00:00:01	1.097	1.565			
00:00:01	1.097	1.094			
00:00:01	1.097	0.803			
00:00:01	1.097	1.687			
00:00:01	1.097	1.754			
00:00:01	1.097	1.972			
00:00:01	1.097	0.470			
00:00:01	1.096	-0.319			
00:00:01	1.096	-0.244			
00:00:01	1.096	-0.517			
00:00:01	1.096	-0.570			
00:00:01	1.095	-0.967			
00:00:01	1.095	-1.387			
00:00:01	1.095	-1.666			
00:00:01	1.095	-1.619			
00:00:01	1.095	-1.656			
00:00:01	1.095	-2.004			
00:00:01	1.095	-2.050			
00:00:01	1.095	-2.244			
00:00:01	1.095	-2.050			
00:00:01	1.095	-2.333			
00:00:01	1.095	-2.204			
00:00:01	1.095	-1.814			
00:00:01	1.095	-1.641			
00:00:01	1.095	-2.304			
00:00:01	1.095	-2.052			
00:00:01	1.095	-1.350			
00:00:01	1.094	-1.524			
00:00:01	1.094	-1.453			
00:00:01	1.094	-0.975			
00:00:01	1.094	-1.181			
00:00:01	1.094	-1.341			
00:00:01	1.094	-0.625			
00:00:01	1.094	-0.419			
00:00:01	1.094	-0.746			
00:00:01	1.093	-0.901			
00:00:01	1.093	-0.695			
00:00:01	1.093	-0.583			
00:00:01	1.093	-0.390			
00:00:01	1.093	-1.699			
00:00:01	1.093	-1.955			
00:00:01	1.093	-0.310			
00:00:01	1.093	0.821			
00:00:02	1.092	2.977			
00:00:02	1.092	8.263			
00:00:02	1.092	10.955			
00:00:02	1.092	13.740			
00:00:02	1.092	16.416			
00:00:02	1.092	18.359			
00:00:02	1.092	23.244			
00:00:02	1.092	24.175			
00:00:02	1.092	24.259			
00:00:02	1.092	23.557			
00:00:02	1.092	20.354			
00:00:02	1.092	13.888			
00:00:02	1.091	12.884			
00:00:02	1.091	11.893			
00:00:02	1.091	10.901			
00:00:02	1.091	9.657			
00:00:02	1.091	7.403			
00:00:02	1.091	4.743			
00:00:02	1.091	3.321			
00:00:02	1.091	0.699			
00:00:02	1.090	1.754			
00:00:02	1.090	1.409			
00:00:02	1.090	0.988			
00:00:02	1.090	0.930			
00:00:02	1.090	0.661			
00:00:02	1.090	0.470			
00:00:02	1.090	-0.023			
00:00:02	1.090	-1.024			
00:00:02	1.089	-1.024			
00:00:02	1.089	-1.344			
00:00:02	1.089	-1.684			
00:00:02	1.089	-2.407			
00:00:02	1.089	-2.084			
00:00:02	1.089	-2.601			
00:00:02	1.089	-2.604			
00:00:02	1.089	-2.554			
00:00:02	1.088	-2.319			
00:00:02	1.088	-2.590			
00:00:02	1.088	-2.480			
00:00:02	1.088	-2.435			
00:00:02	1.088	-2.371			
00:00:02	1.088	-1.861			
00:00:02	1.088	-1.695			
00:00:02	1.088	-1.436			
00:00:02	1.088	-1.526			
00:00:02	1.088	-1.653			
00:00:02	1.088	-1.142			
00:00:02	1.088	-1.015			
00:00:02	1.087	-0.682			
00:00:02	1.087	-0.504			
00:00:02	1.087	-0.354			
00:00:02	1.087	-1.435			
00:00:02	1.087	-1.858			
00:00:02	1.087	-2.234			
00:00:02	1.087	-2.149			
00:00:02	1.087	-1.688			
00:00:02	1.087	-1.737			
00:00:02	1.087	-1.625			
00:00:02	1.087	-1.606			
00:00:02	1.087	-1.936			
00:00:02	1.086	-1.895			
00:00:02	1.086	4.774			
00:00:02	1.086	7.122			
00:00:02	1.086	9.841			
00:00:02	1.086	18.509			
00:00:02	1.086	20.546			
00:00:02	1.086	22.728			
00:00:02	1.086	22.728			
00:00:02	1.085	22.636			
00:00:02	1.085	18.013			
00:00:02	1.085	16.684			
00:00:02	1.085	15.060			
00:00:02	1.085	13.492			
00:00:02	1.085	12.532			
00:00:02	1.085	11.230			
00:00:02	1.085	10.230			
00:00:02	1.085	9.504			
00:00:02	1.085	8.270			
00:00:02	1.085	7.121			
00:00:02	1.085	5.468			
00:00:02	1.084	1.035			
00:00:02	1.084	0.400			
00:00:02	1.084	0.821			
00:00:02	1.084	0.750			
00:00:02	1.083	1.090			
00:00:02	1.083	1.677			
00:00:02	1.083	1.616			
00:00:02	1.083	1.677			
00:00:02	1.083	1.807			
00:00:02	1.083	1.616			
00:00:02	1.083	0.996			
00:00:02	1.083	0.767			
00:00:02	1.083	0.652			
00:00:02	1.083	0.116			
00:00:02	1.083	-0.261			
00:00:02	1.083	-0.621			
00:00:02	1.083	-1.092			
00:00:02	1.083	-1.559			
00:00:02	1.083	-1.847			
00:00:02	1.083	-1.990			
00:00:02	1.082	-2.542			
00:00:02	1.082	-2.750			
00:00:02	1.082	-2.929			
00:00:02	1.082	-3.022			
00:00:02	1.082	-3.036			
00:00:02	1.082	-3.021			
00:00:02	1.082	-3.291			
00:00:02	1.082	-2.149			
00:00:02	1.081	-2.149			
00:00:02	1.081	-1.608			
00:00:02	1.081	-1.010			
00:00:02	1.081	-0.790			
00:00:02	1.080	-1.602			
00:00:02	1.080	-1.602			
00:00:02	1.080	-1.679			
00:00:02	1.080	-1.402			
00:00:02	1.080	-1.649			
00:00:02	1.080	-2.592			
00:00:02	1.080	-2.591			
00:00:02	1.080	-2.170			
00:00:02	1.080	-1.628			
00:00:02	1.080	-1.188			
00:00:02	1.080	-0.422			
00:00:02	1.080	0.596			
00:00:02	1.080	2.488			
00:00:02	1.080	4.874			
00:00:02	1.080	7.189			
00:00:02	1.080	9.823			
00:00:03	1.079	12.356			
00:00:03	1.079	18.250			
00:00:03	1.079	21.887			
00:00:03	1.079	21.095			
00:00:03	1.079	20.032			
00:00:03	1.079	18.989			
00:00:03	1.079	17.758			
00:00:03	1.079	16.771			
00:00:03	1.079	15.608			
00:00:03	1.079	14.303			
00:00:03	1.079	13.341			
00:00:03	1.079	7.668			
00:00:03	1.078	6.797			
00:00:03	1.078	4.580			
00:00:03	1.078	3.407			
00:00:03	1.078	2.144			
00:00:03	1.077	-0.726			
00:00:03	1.077	0.792			
00:00:03	1.077	0.742			
00:00:03	1.077	0.075			
00:00:03	1.077	-0.017			
00:00:03	1.077	0.323			
00:00:03	1.077	0.097			
00:00:03	1.077	0.197			
00:00:03	1.076	-0.028			
00:00:03	1.076	-2.044			
00:00:03	1.076	-2.048			
00:00:03	1.076	-2.082			
00:00:03	1.076	-2.169			
00:00:03	1.076	-2.308			
00:00:03	1.076	-2.455			
00:00:03	1.076	-2.544			
00:00:03	1.076	-2.846			
00:00:03	1.076	-2.960			
00:00:03	1.076	-2.887			
00:00:03	1.076	-2.938			
00:00:03	1.076	-3.047			
00:00:03	1.076	-3.047			
00:00:03	1.076	-3.578			
00:00:03	1.076	-3.803			
00:00:03	1.075	-3.346			
00:00:03	1.075	-3.208			
00:00:03	1.075	-2.800			
00:00:03	1.075	-3.054			
00:00:03	1.075	-3.192			
00:00:03	1.075	-2.866			
00:00:03	1.075	-2.741			
00:00:03	1.075	-2.798			
00:00:03	1.075	-1.701			
00:00:03	1.075	-1.737			
00:00:03	1.075	-1.387			
00:00:03	1.075	-1.884			
00:00:03	1.074	-2.337			
00:00:03	1.074	-2.502			
00:00:03	1.074	-1.625			
00:00:03	1.074	-0.488			
00:00:03	1.074	3.127			
00:00:03	1.074	22.175			
00:00:03	1.074	22.305			
00:00:03	1.074	22.154			
00:00:03	1.073	16.815			
00:00:03	1.073	15.703			
00:00:03	1.073	14.604			
00:00:03	1.073	14.604			
00:00:03	1.073	13.623			
00:00:03	1.073	11.379			
00:00:03	1.073	10.395			
00:00:03	1.073	9.202			
00:00:03	1.073	8.088			
00:00:03	1.073	6.988			
00:00:03	1.073	5.478			
00:00:03	1.073	4.029			
00:00:03	1.073	-0.014			
00:00:03	1.073	-1.070			
00:00:03	1.073	-1.743			
00:00:03	1.073	-1.830			
00:00:03	1.072	-1.529			
00:00:03	1.072	-1.297			
00:00:03	1.072	0.458			
00:00:03	1.072	0.890			
00:00:03	1.072	0.279			
00:00:03	1.072	0.247			
00:00:03	1.072	-0.612			
00:00:03	1.072	-1.052			
00:00:03	1.072	-1.376			
00:00:03	1.072	-1.375			
00:00:03	1.072	-1.375			
00:00:03	1.072	-1.622			
00:00:03	1.071	-1.876			
00:00:03	1.071	-1.911			
00:00:03	1.071	-2.658			
00:00:03	1.071	-2.692			
00:00:03	1.071	-2.658			
00:00:03	1.071	-2.570			
00:00:03	1.071	-1.917			
00:00:03	1.071	-1.572			
00:00:03	1.071	-1.393			
00:00:03	1.071	-1.281			
00:00:03	1.071	-1.346			
00:00:03	1.071	-2.064			
00:00:03	1.070	-2.514			
00:00:03	1.070	-0.723			
00:00:03	1.070	1.050			
00:00:03	1.070	13.125			
00:00:03	1.070	15.627			
00:00:03	1.070	17.811			
00:00:03	1.070	20.799			
00:00:03	1.070	21.896			
00:00:03	1.070	21.036			
00:00:03	1.070	19.295			
00:00:03	1.070	18.631			
00:00:03	1.070	17.855			
00:00:03	1.070	17.855			
00:00:03	1.070	15.305			
00:00:03	1.070	11.483			
00:00:03	1.070	10.438			
00:00:03	1.069	3.519			
00:00:03	1.069	1.419			
00:00:03	1.069	0.833			
00:00:03	1.069	0.172			
00:00:03	1.069	-0.678			
00:00:03	1.069	-1.160			
00:00:03	1.069	-1.453			
00:00:03	1.069	-1.040			
00:00:03	1.069	-0.764			
00:00:03	1.069	0.282			
00:00:03	1.069	0.526			
00:00:03	1.069	0.408			
00:00:04	1.069	0.669			
00:00:04	1.069	-0.137			
00:00:04	1.069	-0.252			
00:00:04	1.069	-1.199			
00:00:04	1.069	-1.638			
00:00:04	1.069	-2.190			
00:00:04	1.069	-2.698			
00:00:04	1.069	-2.625			
00:00:04	1.069	-2.704			
00:00:04	1.069	-3.234			
00:00:04	1.069	-3.463			
00:00:04	1.069	-3.376			
00:00:04	1.069	-4.120			
00:00:04	1.069	-4.120			
00:00:04	1.069	-3.442			
00:00:04	1.069	-3.219			
00:00:04	1.069	-2.436			
00:00:04	1.069	-2.322			
00:00:04	1.069	-2.490			
00:00:04	1.069	-2.840			
00:00:04	1.069	-3.258			
00:00:04	1.069	-2.989			
00:00:04	1.069	-2.960			
00:00:04	1.069	-2.949			
00:00:04	1.069	-3.026			
00:00:04	1.069	-3.071			
00:00:04	1.069	-3.071			
00:00:04	1.069	-1.367			
00:00:04	1.070	-0.470			
00:00:04	1.070	5.357			
00:00:04	1.070	18.577			
00:00:04	1.070	20.080			
00:00:04	1.070	21.314			
00:00:04	1.070	21.914			
00:00:04	1.070	22.026			
00:00:04	1.070	21.745			
00:00:04	1.070	21.508			
00:00:04	1.070	21.096			
00:00:04	1.070	20.401			
00:00:04	1.070	19.665			
00:00:04	1.070	18.654			
00:00:04	1.070	17.690			
00:00:04	1.070	18.654			
00:00:04	1.070	17.690			
00:00:04	1.070	14.150			
00:00:04	1.070	12.621			
00:00:04	1.070	11.544			
00:00:04	1.070	10.740			
00:00:04	1.070	9.857			
00:00:04	1.070	9.098			
00:00:04	1.070	1.158			
00:00:04	1.070	-0.434			
00:00:04	1.071	-0.827			
00:00:04	1.071	-0.808			
00:00:04	1.071	-0.712			
00:00:04	1.071	-0.110			
00:00:04	1.071	0.084			
00:00:04	1.071	0.331			
00:00:04	1.071	0.271			
00:00:04	1.071	0.681			
00:00:04	1.072	0.727			
00:00:04	1.072	0.201			
00:00:04	1.072	-0.932			
00:00:04	1.072	-1.592			
00:00:04	1.072	-2.173			
00:00:04	1.072	-3.148			
00:00:04	1.072	-3.327			
00:00:04	1.072	-3.620			
00:00:04	1.073	-3.599			
00:00:04	1.073	-3.578			
00:00:04	1.073	-3.098			
00:00:04	1.073	-2.961			
00:00:04	1.074	-2.178			
00:00:04	1.074	-1.997			
00:00:04	1.074	-2.437			
00:00:04	1.074	-2.602			
00:00:04	1.074	-2.582			
00:00:04	1.074	-2.601			
00:00:04	1.074	-2.300			
00:00:04	1.074	-1.605			
00:00:04	1.075	-0.856			
00:00:04	1.075	1.313			
00:00:04	1.075	0.047			
00:00:04	1.075	11.018			
00:00:04	1.075	13.626			
00:00:04	1.075	17.657			
00:00:04	1.075	19.652			
00:00:04	1.075	21.042			
00:00:04	1.077	13.379			
00:00:04	1.077	11.384			
00:00:04	1.077	2.925			
00:00:04	1.077	1.850			
00:00:04	1.078	0.093			
00:00:04	1.078	-0.073			
00:00:04	1.078	0.165			
00:00:04	1.078	0.539			
00:00:04	1.078	0.524			
00:00:04	1.078	0.047			
00:00:04	1.078	-0.269			
00:00:04	1.078	-0.526			
00:00:04	1.079	-0.138			
00:00:04	1.079	-1.594			
00:00:04	1.079	-3.331			
00:00:04	1.079	-3.105			
00:00:04	1.080	-3.360			
00:00:04	1.080	-2.511			
00:00:04	1.080	-2.433			
00:00:04	1.080	-2.166			
00:00:04	1.080	-1.996			
00:00:04	1.080	-1.667			
00:00:04	1.080	-2.166			
00:00:04	1.080	-2.452			
00:00:04	1.081	-2.904			
00:00:04	1.081	0.893			
00:00:04	1.081	2.784			
00:00:04	1.081	5.158			
00:00:04	1.081	7.272			
00:00:04	1.081	9.730			
00:00:04	1.081	12.339			
00:00:04	1.081	21.156			
00:00:04	1.082	20.920			
00:00:04	1.082	19.489			
00:00:04	1.082	18.533			
00:00:04	1.082	10.866			
00:00:04	1.082	12.111			
00:00:04	1.082	8.158			
00:00:04	1.082	5.877			
00:00:04	1.082	4.640			
00:00:05	1.083	3.231			
00:00:05	1.083	0.772			
00:00:05	1.083	0.580			
00:00:05	1.083	-0.117			
00:00:05	1.083	0.201			
00:00:05	1.083	1.206			
00:00:05	1.083	-0.333			
00:00:05	1.083	-0.948			
00:00:05	1.083	-1.172			
00:00:05	1.083	-1.172			
00:00:05	1.083	-2.495			
00:00:05	1.083	-2.752			
00:00:05	1.084	-3.150			
00:00:05	1.084	-3.105			
00:00:05	1.084	-3.297			
00:00:05	1.084	-3.297			
00:00:05	1.084	-3.491			
00:00:05	1.084	-3.593			
00:00:05	1.084	-3.752			
00:00:05	1.084	-3.924			
00:00:05	1.084	-3.662			
00:00:05	1.084	-3.837			
00:00:05	1.084	-2.240			
00:00:05	1.084	-2.147			
00:00:05	1.084	-2.201			
00:00:05	1.084	-1.901			
00:00:05	1.084	-2.040			
00:00:05	1.084	-2.418			
00:00:05	1.084	-2.641			
00:00:05	1.084	-2.729			
00:00:05	1.084	-2.569			
00:00:05	1.084	-2.615			
00:00:05	1.085	-2.822			
00:00:05	1.085	-3.336			
00:00:05	1.085	-3.100			
00:00:05	1.085	-2.911			
00:00:05	1.085	-2.077			
00:00:05	1.085	9.883			
00:00:05	1.085	12.544			
00:00:05	1.085	14.807			
00:00:05	1.085	16.384			
00:00:05	1.085	20.558			
00:00:05	1.085	21.179			
00:00:05	1.085	20.666			
00:00:05	1.085	20.052			
00:00:05	1.085	19.253			
00:00:05	1.085	18.306			
00:00:05	1.085	13.909			
00:00:05	1.086	12.615			
00:00:05	1.086	6.049			
00:00:05	1.086	2.736			
00:00:05	1.086	-0.668			
00:00:05	1.086	-0.337			
00:00:05	1.086	-0.091			
00:00:05	1.086	0.408			
00:00:05	1.086	0.847			
00:00:05	1.087	0.610			
00:00:05	1.087	0.743			
00:00:05	1.087	0.541			
00:00:05	1.087	0.501			
00:00:05	1.087	-1.181			
00:00:05	1.087	-2.286			
00:00:05	1.087	-2.126			
00:00:05	1.087	-2.532			
00:00:05	1.087	-3.218			
00:00:05	1.087	-3.391			
00:00:05	1.087	-3.783			
00:00:05	1.087	-3.720			
00:00:05	1.087	-3.703			
00:00:05	1.087	-3.720			
00:00:05	1.087	-3.488			
00:00:05	1.087	-3.564			
00:00:05	1.088	-3.062			
00:00:05	1.088	-2.888			
00:00:05	1.088	-2.776			
00:00:05	1.088	-2.935			
00:00:05	1.088	-2.177			
00:00:05	1.088	-1.454			
00:00:05	1.088	-0.620			
00:00:05	1.088	0.993			
00:00:05	1.088	10.857			
00:00:05	1.088	13.065			
00:00:05	1.088	17.270			
00:00:05	1.088	19.345			
00:00:05	1.089	19.016			
00:00:05	1.089	18.072			
00:00:05	1.089	17.017			
00:00:05	1.089	16.078			
00:00:05	1.089	14.938			
00:00:05	1.089	12.951			
00:00:05	1.089	12.022			
00:00:05	1.089	11.289			
00:00:05	1.089	9.990			
00:00:05	1.089	2.563			
00:00:05	1.089	2.563			
00:00:05	1.089	-1.014			
00:00:05	1.089	-0.796			
00:00:05	1.089	-0.468			
00:00:05	1.089	-0.595			
00:00:05	1.089	-0.494			
00:00:05	1.089	-0.499			
00:00:05	1.089	-0.026			
00:00:05	1.089	0.477			
00:00:05	1.089	0.301			
00:00:05	1.089	0.283			
00:00:05	1.089	-0.222			
00:00:05	1.089	0.061			
00:00:05	1.089	-0.222			
00:00:05	1.089	-0.258			
00:00:05	1.089	-0.677			
00:00:05	1.089	-1.040			
00:00:05	1.089	-1.786			
00:00:05	1.089	-1.807			
00:00:05	1.089	-2.312			
00:00:05	1.089	-2.425			
00:00:05	1.089	-3.027			
00:00:05	1.089	-3.135			
00:00:05	1.089	-3.396			
00:00:05	1.089	-3.492			
00:00:05	1.089	-3.463			
00:00:05	1.089	-3.376			
00:00:05	1.089	-3.048			
00:00:05	1.089	-2.921			
00:00:05	1.089	-2.576			
00:00:05	1.089	-2.328			
00:00:05	1.089	-1.620			
00:00:05	1.089	-1.589			
00:00:05	1.089	-1.767			
00:00:06	1.089	-2.068			
00:00:06	1.089	-2.074			
00:00:06	1.089	-2.053			
00:00:06	1.089	-2.782			
00:00:06	1.089	-2.621			
00:00:06	1.089	-2.848			
00:00:06	1.089	-2.247			
00:00:06	1.089	0.041			
00:00:06	1.089	3.607			
00:00:06	1.089	8.799			
00:00:06	1.089	11.642			
00:00:06	1.089	19.621			
00:00:06	1.089	21.475			
00:00:06	1.089	20.002			
00:00:06	1.089	14.218			
00:00:06	1.089	13.438			
00:00:06	1.089	12.451			
00:00:06	1.089	11.524			
00:00:06	1.089	10.352			
00:00:06	1.089	8.714			
00:00:06	1.089	7.501			
00:00:06	1.089	6.298			
00:00:06	1.089	5.318			
00:00:06	1.089	4.290			
00:00:06	1.090	2.704			
00:00:06	1.090	2.704			
00:00:06	1.090	1.492			
00:00:06	1.090	0.431			
00:00:06	1.090	-0.312			
00:00:06	1.090	-0.826			
00:00:06	1.090	-1.042			
00:00:06	1.090	-1.235			
00:00:06	1.090	-0.494			
00:00:06	1.090	0.360			
00:00:06	1.090	0.108			
00:00:06	1.090	0.313			
00:00:06	1.091	0.217			
00:00:06	1.091	-0.104			
00:00:06	1.091	-0.669			
00:00:06	1.091	-2.744			
00:00:06	1.091	-2.687			
00:00:06	1.091	-2.719			
00:00:06	1.091	-2.929			
00:00:06	1.091	-2.923			
00:00:06	1.092	-4.331			
00:00:06	1.092	-4.134			
00:00:06	1.092	-4.102			
00:00:06	1.092	-3.567			
00:00:06	1.092	-2.966			
00:00:06	1.092	-2.831			
00:00:06	1.092	-2.719			
00:00:06	1.092	-2.247			
00:00:06	1.092	-2.247			
00:00:06	1.092	-2.293			
00:00:06	1.092	-2.276			
00:00:06	1.092	-1.620			
00:00:06	1.093	-2.603			
00:00:06	1.093	-2.338			
00:00:06	1.093	-2.637			
00:00:06	1.093	-1.023			
00:00:06	1.093	2.296			
00:00:06	1.093	14.654			
00:00:06	1.093	14.654			
00:00:06	1.093	16.555			
00:00:06	1.094	18.436			
00:00:06	1.094	19.843			
00:00:06	1.094	22.441			
00:00:06	1.094	21.727			
00:00:06	1.094	18.791			
00:00:06	1.094	16.464			
00:00:06	1.094	15.177			
00:00:06	1.094	14.144			
00:00:06	1.094	12.690			
00:00:06	1.094	9.971			
00:00:06	1.094	12.690			
00:00:06	1.094	4.809			
00:00:06	1.094	3.469			
00:00:06	1.094	3.469			
00:00:06	1.094	0.111			
00:00:06	1.094	-0.928			
00:00:06	1.094	0.159			
00:00:06	1.094	0.621			
00:00:06	1.094	0.854			
00:00:06	1.094	0.504			
00:00:06	1.094	0.619			
00:00:06	1.094	0.585			
00:00:06	1.094	0.546			
00:00:06	1.094	-0.073			
00:00:06	1.095	-1.638			
00:00:06	1.095	-1.889			
00:00:06	1.095	-2.228			
00:00:06	1.095	-2.964			
00:00:06	1.095	-2.969			
00:00:06	1.095	-3.036			
00:00:06	1.095	-3.268			
00:00:06	1.095	-3.726			
00:00:06	1.095	-3.596			
00:00:06	1.095	-3.448			
00:00:06	1.095	-3.440			
00:00:06	1.095	-3.469			
00:00:06	1.095	-3.355			
00:00:06	1.095	-3.237			
00:00:06	1.095	-2.761			
00:00:06	1.095	-2.615			
00:00:06	1.095	-2.329			
00:00:06	1.095	-1.808			
00:00:06	1.095	-1.752			
00:00:06	1.095	-1.979			
00:00:06	1.095	-1.513			
00:00:06	1.095	-1.503			
00:00:06	1.095	-2.962			
00:00:06	1.095	-2.924			
00:00:06	1.094	-2.934			
00:00:06	1.094	-2.625			
00:00:06	1.094	-1.655			
00:00:06	1.094	5.473			
00:00:06	1.094	10.846			
00:00:06	1.094	13.431			
00:00:06	1.094	16.180			
00:00:06	1.094	18.507			
00:00:06	1.094	20.294			
00:00:06	1.094	21.425			
00:00:06	1.094	22.021			
00:00:06	1.094	19.793			
00:00:06	1.094	18.573			
00:00:06	1.094	16.430			
00:00:06	1.094	8.779			
00:00:06	1.094	8.779			
00:00:07	1.094	7.556			
00:00:07	1.094	6.032			
00:00:07	1.094	4.692			
00:00:07	1.094	3.134			
00:00:07	1.094	1.965			
00:00:07	1.094	1.038			
00:00:07	1.094	-0.139			
00:00:07	1.094	-1.005			
00:00:07	1.094	-1.742			
00:00:07	1.094	-0.715			
00:00:07	1.094	-0.189			
00:00:07	1.094	0.177			
00:00:07	1.094	0.343			
00:00:07	1.094	1.109			
00:00:07	1.094	0.703			
00:00:07	1.094	0.435			
00:00:07	1.094	-0.037			
00:00:07	1.094	-0.013			
00:00:07	1.094	-0.037			
00:00:07	1.094	-0.643			
00:00:07	1.094	-0.974			
00:00:07	1.094	-1.271			
00:00:07	1.094	-1.372			
00:00:07	1.094	-2.030			
00:00:07	1.095	-2.570			
00:00:07	1.095	-2.943			
00:00:07	1.095	-3.553			
00:00:07	1.095	-3.823			
00:00:07	1.095	-4.029			
00:00:07	1.095	-3.376			
00:00:07	1.095	-2.978			
00:00:07	1.095	-2.848			
00:00:07	1.095	-2.743			
00:00:07	1.095	-2.839			
00:00:07	1.095	-2.600			
00:00:07	1.095	-2.635			
00:00:07	1.095	-2.571			
00:00:07	1.095	-2.557			
00:00:07	1.095	-2.739			
00:00:07	1.095	-2.576			
00:00:07	1.096	-2.583			
00:00:07	1.096	-2.443			
00:00:07	1.096	-2.378			
00:00:07	1.096	-2.565			
00:00:07	1.096	-2.725			
00:00:07	1.096	-3.011			
00:00:07	1.096	-2.504			
00:00:07	1.096	-0.753			
00:00:07	1.097	3.556			
00:00:07	1.097	6.092			
00:00:07	1.097	8.774			
00:00:07	1.097	11.616			
00:00:07	1.097	14.214			
00:00:07	1.097	16.719			
00:00:07	1.097	20.907			
00:00:07	1.097	24.301			
00:00:07	1.098	24.447			
00:00:07	1.098	23.890			
00:00:07	1.098	22.713			
00:00:07	1.098	20.402			
00:00:07	1.098	19.132			
00:00:07	1.098	17.772			
00:00:07	1.098	16.355			
00:00:07	1.098	15.468			
00:00:07	1.099	13.146			
00:00:07	1.099	10.881			
00:00:07	1.099	9.912			
00:00:07	1.099	6.980			
00:00:07	1.099	5.614			
00:00:07	1.099	2.558			
00:00:07	1.099	1.450			
00:00:07	1.099	0.451			
00:00:07	1.101	-0.700			
00:00:07	1.101	-0.778			
00:00:07	1.101	-0.864			
00:00:07	1.101	-0.530			
00:00:07	1.102	-0.225			
00:00:07	1.102	0.204			
00:00:07	1.102	-0.056			
00:00:07	1.102	-0.056			
00:00:07	1.102	0.080			
00:00:07	1.102	0.033			
00:00:07	1.102	-0.260			
00:00:07	1.102	-0.868			
00:00:07	1.103	-1.263			
00:00:07	1.103	-1.348			
00:00:07	1.103	-1.627			
00:00:07	1.103	-1.905			
00:00:07	1.105	-2.960			
00:00:07	1.105	-3.224			
00:00:07	1.105	-4.356			
00:00:07	1.105	-4.567			
00:00:07	1.107	-4.409			
00:00:07	1.107	-4.677			
00:00:07	1.107	-4.151			
00:00:07	1.107	-4.019			
00:00:07	1.110	-3.558			
00:00:07	1.110	-3.265			
00:00:07	1.110	-2.922			
00:00:07	1.110	-2.808			
00:00:07	1.113	-2.585			
00:00:07	1.113	-2.879			
00:00:07	1.113	-2.897			
00:00:07	1.113	-3.257			
00:00:07	1.116	-3.370			
00:00:07	1.116	-4.059			
00:00:07	1.116	-4.417			
00:00:07	1.116	-4.010			
00:00:07	1.120	-3.305			
00:00:07	1.120	8.441			
00:00:07	1.120	19.591			
00:00:07	1.120	21.580			
00:00:07	1.123	23.253			
00:00:07	1.123	24.097			
00:00:07	1.123	24.376			
00:00:07	1.123	24.246			
00:00:07	1.125	24.276			
00:00:07	1.125	24.066			
00:00:07	1.125	23.078			
00:00:07	1.125	21.796			
00:00:07	1.127	20.557			
00:00:07	1.127	19.661			
00:00:07	1.127	18.696			
00:00:07	1.127	17.345			
00:00:07	1.134	13.469			
00:00:07	1.134	6.198			
00:00:07	1.134	0.581			
00:00:07	1.134	-0.692			
00:00:08	1.139	-1.093			
00:00:08	1.139	-1.811			
00:00:08	1.139	-1.901			
00:00:08	1.139	-1.508			
00:00:08	1.141	-1.476			
00:00:08	1.141	-1.157			
00:00:08	1.141	-1.155			
00:00:08	1.141	-0.822			
00:00:08	1.144	0.339			
00:00:08	1.144	0.473			
00:00:08	1.144	0.317			
00:00:08	1.144	0.236			
00:00:08	1.147	0.364			
00:00:08	1.147	-0.002			
00:00:08	1.147	-0.148			
00:00:08	1.147	-0.321			
00:00:08	1.152	-0.838			
00:00:08	1.152	-3.035			
00:00:08	1.152	-3.154			
00:00:08	1.152	-3.164			
00:00:08	1.155	-2.814			
00:00:08	1.155	-3.238			
00:00:08	1.155	-3.345			
00:00:08	1.155	-3.574			
00:00:08	1.158	-4.203			
00:00:08	1.158	-4.053			
00:00:08	1.158	-4.155			
00:00:08	1.158	-4.356			
00:00:08	1.161	-4.180			
00:00:08	1.161	-4.314			
00:00:08	1.161	-3.807			
00:00:08	1.161	-3.240			
00:00:08	1.168	-3.313			
00:00:08	1.168	-3.188			
00:00:08	1.168	-2.158			
00:00:08	1.168	-2.602			
00:00:08	1.178	-2.353			
00:00:08	1.178	-2.654			
00:00:08	1.178	2.473			
00:00:08	1.178	4.744			
00:00:08	1.188	17.928			
00:00:08	1.188	21.094			
00:00:08	1.188	19.086			
00:00:08	1.188	21.094			
00:00:08	1.197	9.986			
00:00:08	1.197	8.598			
00:00:08	1.197	-1.245			
00:00:08	1.197	-1.533			
00:00:08	1.201	-1.193			
00:00:08	1.201	-0.657			
00:00:08	1.201	-1.193			
00:00:08	1.201	-0.657			
00:00:08	1.203	-0.422			
00:00:08	1.203	-0.422			
00:00:08	1.203	0.467			
00:00:08	1.203	0.463			
00:00:08	1.208	0.740			
00:00:08	1.208	-1.245			
00:00:08	1.208	-1.563			
00:00:08	1.208	-1.755			
00:00:08	1.212	-1.999			
00:00:08	1.212	-3.052			
00:00:08	1.212	-4.176			
00:00:08	1.212	-3.899			
00:00:08	1.213	-4.190			
00:00:08	1.213	-4.176			
00:00:08	1.213	-4.068			
00:00:08	1.213	-3.905			
00:00:08	1.215	-4.227			
00:00:08	1.215	-4.655			
00:00:08	1.215	-4.528			
00:00:08	1.215	-4.375			
00:00:08	1.217	-3.901			
00:00:08	1.217	-3.561			
00:00:08	1.217	-3.724			
00:00:08	1.217	-2.547			
00:00:08	1.221	-2.403			
00:00:08	1.221	-2.038			
00:00:08	1.221	-2.104			
00:00:08	1.221	-2.808			
00:00:08	1.223	-2.954			
00:00:08	1.223	-3.180			
00:00:08	1.223	-2.980			
00:00:08	1.223	-2.972			
00:00:08	1.225	-1.171			
00:00:08	1.225	-1.171			
00:00:08	1.225	13.382			
00:00:08	1.225	18.594			
00:00:08	1.228	22.676			
00:00:08	1.228	23.548			
00:00:08	1.228	24.052			
00:00:08	1.228	24.066			
00:00:08	1.229	23.473			
00:00:08	1.229	21.955			
00:00:08	1.229	20.905			
00:00:08	1.229	17.240			
00:00:08	1.232	14.527			
00:00:08	1.232	13.174			
00:00:08	1.232	4.103			
00:00:08	1.232	0.947			
00:00:08	1.234	0.523			
00:00:08	1.234	-0.234			
00:00:08	1.234	-0.444			
00:00:08	1.234	-0.487			
00:00:08	1.235	-0.361			
00:00:08	1.235	-0.022			
00:00:08	1.235	-0.403			
00:00:08	1.235	-0.422			
00:00:08	1.236	-0.156			
00:00:08	1.236	0.051			
00:00:08	1.236	1.052			
00:00:08	1.236	-0.545			
00:00:08	1.238	-0.858			
00:00:08	1.238	-0.804			
00:00:08	1.238	-1.268			
00:00:08	1.238	-1.331			
00:00:08	1.239	-1.329			
00:00:08	1.239	-1.758			
00:00:08	1.239	-2.213			
00:00:08	1.239	-2.931			
00:00:08	1.239	-3.190			
00:00:08	1.239	-3.014			
00:00:08	1.239	-3.443			
00:00:08	1.239	-3.688			
00:00:08	1.240	-3.741			
00:00:08	1.240	-3.714			
00:00:08	1.240	-3.776			
00:00:08	1.240	-3.906			
00:00:09	1.241	-3.754			
00:00:09	1.241	-3.068			
00:00:09	1.241	-2.710			
00:00:09	1.241	-2.686			
00:00:09	1.242	-2.434			
00:00:09	1.242	-2.245			
00:00:09	1.242	-2.288			
00:00:09	1.242	-1.819			
00:00:09	1.243	-1.261			
00:00:09	1.243	-1.564			
00:00:09	1.243	-1.516			
00:00:09	1.243	-1.516			
00:00:09	1.243	-2.050			
00:00:09	1.243	-2.022			
00:00:09	1.243	-1.958			
00:00:09	1.243	-1.761			
00:00:09	1.244	-2.005			
00:00:09	1.244	-2.171			
00:00:09	1.244	-2.218			
00:00:09	1.244	-2.057			
00:00:09	1.244	-1.634			
00:00:09	1.244	-0.112			
00:00:09	1.244	5.764			
00:00:09	1.244	19.803			
00:00:09	1.245	21.898			
00:00:09	1.245	24.599			
00:00:09	1.245	25.350			
00:00:09	1.245	26.103			
00:00:09	1.245	25.842			
00:00:09	1.245	24.827			
00:00:09	1.245	23.634			
00:00:09	1.245	22.832			
00:00:09	1.246	21.670			
00:00:09	1.246	20.567			
00:00:09	1.246	14.963			
00:00:09	1.246	12.890			
00:00:09	1.246	9.502			
00:00:09	1.246	6.450			
00:00:09	1.246	0.832			
00:00:09	1.246	2.028			
00:00:09	1.246	1.449			
00:00:09	1.246	0.344			
00:00:09	1.246	-0.115			
00:00:09	1.246	-0.314			
00:00:09	1.246	0.391			
00:00:09	1.246	0.713			
00:00:09	1.246	0.885			
00:00:09	1.246	0.904			
00:00:09	1.246	1.055			
00:00:09	1.246	1.508			
00:00:09	1.246	1.646			
00:00:09	1.246	1.556			
00:00:09	1.246	1.548			
00:00:09	1.246	1.496			
00:00:09	1.246	1.375			
00:00:09	1.246	0.731			
00:00:09	1.247	-1.016			
00:00:09	1.247	-2.004			
00:00:09	1.247	-1.932			
00:00:09	1.247	-2.168			
00:00:09	1.246	-2.553			
00:00:09	1.246	-2.476			
00:00:09	1.246	-2.902			
00:00:09	1.246	-3.311			
00:00:09	1.246	-3.364			
00:00:09	1.246	-3.525			
00:00:09	1.246	-3.335			
00:00:09	1.246	-2.813			
00:00:09	1.246	-2.528			
00:00:09	1.246	-1.455			
00:00:09	1.246	-1.231			
00:00:09	1.246	-1.438			
00:00:09	1.246	-1.814			
00:00:09	1.246	-1.592			
00:00:09	1.246	-1.803			
00:00:09	1.246	-1.734			
00:00:09	1.246	-1.782			
00:00:09	1.246	-1.886			
00:00:09	1.246	-2.215			
00:00:09	1.246	-1.208			
00:00:09	1.246	-0.121			
00:00:09	1.246	1.782			
00:00:09	1.246	4.013			
00:00:09	1.246	6.347			
00:00:09	1.245	22.300			
00:00:09	1.245	24.665			
00:00:09	1.245	21.679			
00:00:09	1.245	13.790			
00:00:09	1.244	6.046			
00:00:09	1.244	7.590			
00:00:09	1.244	4.841			
00:00:09	1.244	0.377			
00:00:09	1.244	1.086			
00:00:09	1.244	1.086			
00:00:09	1.244	1.061			
00:00:09	1.244	1.368			
00:00:09	1.243	1.000			
00:00:09	1.243	1.292			
00:00:09	1.243	1.600			
00:00:09	1.243	0.381			
00:00:09	1.242	0.149			
00:00:09	1.242	-0.395			
00:00:09	1.242	-1.371			
00:00:09	1.242	-2.441			
00:00:09	1.242	-3.100			
00:00:09	1.242	-2.910			
00:00:09	1.242	-2.722			
00:00:09	1.242	-2.706			
00:00:09	1.241	-2.702			
00:00:09	1.241	-2.390			
00:00:09	1.241	-2.435			
00:00:09	1.241	-1.802			
00:00:09	1.240	-1.317			
00:00:09	1.240	-1.216			
00:00:09	1.240	-1.411			
00:00:09	1.240	-1.474			
00:00:09	1.239	-1.267			
00:00:09	1.239	-0.567			
00:00:09	1.239	0.395			
00:00:09	1.239	4.430			
00:00:09	1.237	6.507			
00:00:09	1.237	24.201			
00:00:09	1.237	23.776			
00:00:09	1.237	22.119			
00:00:09	1.236	19.782			
00:00:09	1.236	14.850			
00:00:09	1.236	11.394			
00:00:09	1.236	7.433			
00:00:10	1.235	0.996			
00:00:10	1.235	0.812			
00:00:10	1.235	0.455			
00:00:10	1.235	1.733			
00:00:10	1.233	1.689			
00:00:10	1.233	1.238			
00:00:10	1.233	0.887			
00:00:10	1.233	0.263			
00:00:10	1.233	0.263			
00:00:10	1.233	-1.813			
00:00:10	1.233	-1.780			
00:00:10	1.233	-1.719			
00:00:10	1.232	-1.536			
00:00:10	1.232	-2.088			
00:00:10	1.232	-2.645			
00:00:10	1.232	-2.275			
00:00:10	1.231	-2.458			
00:00:10	1.231	-2.645			
00:00:10	1.231	-2.760			
00:00:10	1.231	-2.787			
00:00:10	1.230	-2.604			
00:00:10	1.230	-2.116			
00:00:10	1.230	-1.544			
00:00:10	1.230	-1.239			
00:00:10	1.230	-1.336			
00:00:10	1.230	-1.325			
00:00:10	1.230	-1.464			
00:00:10	1.230	-1.846			
00:00:10	1.229	-1.892			
00:00:10	1.229	-2.131			
00:00:10	1.229	-2.131			
00:00:10	1.229	-0.823			
00:00:10	1.228	-0.139			
00:00:10	1.228	1.087			
00:00:10	1.228	2.692			
00:00:10	1.228	4.673			
00:00:10	1.227	6.816			
00:00:10	1.227	9.193			
00:00:10	1.227	15.919			
00:00:10	1.227	29.313			
00:00:10	1.226	29.313			
00:00:10	1.226	28.538			
00:00:10	1.226	26.516			
00:00:10	1.226	23.317			
00:00:10	1.225	17.651			
00:00:10	1.225	17.606			
00:00:10	1.225	18.954			
00:00:10	1.225	19.275			
00:00:10	1.225	13.237			
00:00:10	1.225	9.852			
00:00:10	1.225	6.316			
00:00:10	1.225	0.124			
00:00:10	1.224	5.650			
00:00:10	1.224	5.019			
00:00:10	1.224	3.488			
00:00:10	1.224	-0.963			
00:00:10	1.223	-3.375			
00:00:10	1.223	-0.598			
00:00:10	1.223	3.143			
00:00:10	1.223	-3.692			
00:00:10	1.221	-1.049			
00:00:10	1.221	3.539			
00:00:10	1.221	3.000			
00:00:10	1.221	1.380			
00:00:10	1.220	-7.251			
00:00:10	1.220	-5.584			
00:00:10	1.220	-1.490			
00:00:10	1.220	0.521			
00:00:10	1.218	-6.734			
00:00:10	1.218	-2.503			
00:00:10	1.218	2.106			
00:00:10	1.218	-4.266			
00:00:10	1.217	-2.057			
00:00:10	1.217	0.460			
00:00:10	1.217	-5.055			
00:00:10	1.217	-6.426			
00:00:10	1.216	-6.348			
00:00:10	1.216	-4.776			
00:00:10	1.216	-2.347			
00:00:10	1.216	5.634			
00:00:10	1.215	9.973			
00:00:10	1.215	14.153			
00:00:10	1.215	17.256			
00:00:10	1.215	17.256			
00:00:10	1.215	19.117			
00:00:10	1.215	19.832			
00:00:10	1.215	19.647			
00:00:10	1.215	19.746			
00:00:10	1.214	20.065			
00:00:10	1.214	20.938			
00:00:10	1.214	24.056			
00:00:10	1.214	26.112			
00:00:10	1.213	27.587			
00:00:10	1.213	29.390			
00:00:10	1.213	12.357			
00:00:10	1.213	10.825			
00:00:10	1.211	10.060			
00:00:10	1.211	-1.554			
00:00:10	1.211	-2.439			
00:00:10	1.211	1.034			
00:00:10	1.210	4.344			
00:00:10	1.210	-1.300			
00:00:10	1.210	-1.300			
00:00:10	1.210	-3.191			
00:00:10	1.209	-2.576			
00:00:10	1.209	1.345			
00:00:10	1.209	3.300			
00:00:10	1.209	1.978			
00:00:10	1.207	-6.346			
00:00:10	1.207	1.807			
00:00:10	1.207	0.733			
00:00:10	1.207	-1.427			
00:00:10	1.207	-3.657			
00:00:10	1.207	-6.103			
00:00:10	1.207	-7.508			
00:00:10	1.207	-7.186			
00:00:10	1.206	-5.640			
00:00:10	1.206	1.277			
00:00:10	1.206	1.145			
00:00:10	1.206	-3.566			
00:00:10	1.205	-6.339			
00:00:10	1.205	-6.313			
00:00:10	1.205	3.265			
00:00:10	1.205	2.154			
00:00:10	1.204	0.235			
00:00:10	1.204	-1.917			
00:00:10	1.204	-4.129			
00:00:10	1.204	-5.960			
00:00:11	1.203	-6.664			
00:00:11	1.203	-6.121			
00:00:11	1.203	-4.787			
00:00:11	1.203	-2.988			
00:00:11	1.202	7.223			
00:00:11	1.202	7.223			
00:00:11	1.202	23.908			
00:00:11	1.202	28.237			
00:00:11	1.201	25.688			
00:00:11	1.201	22.730			
00:00:11	1.201	20.200			
00:00:11	1.201	17.998			
00:00:11	1.200	16.473			
00:00:11	1.200	15.787			
00:00:11	1.200	15.765			
00:00:11	1.200	16.386			
00:00:11	1.200	16.968			
00:00:11	1.200	16.780			
00:00:11	1.200	15.184			
00:00:11	1.200	12.627			
00:00:11	1.199	9.600			
00:00:11	1.199	6.489			
00:00:11	1.199	3.925			
00:00:11	1.199	2.068			
00:00:11	1.198	0.816			
00:00:11	1.198	3.100			
00:00:11	1.198	2.613			
00:00:11	1.198	0.603			
00:00:11	1.198	-0.761			
00:00:11	1.198	-1.240			
00:00:11	1.198	-0.983			
00:00:11	1.198	3.354			
00:00:11	1.197	2.509			
00:00:11	1.197	3.354			
00:00:11	1.197	3.826			
00:00:11	1.197	3.080			
00:00:11	1.196	0.588			
00:00:11	1.196	-1.385			
00:00:11	1.196	-2.025			
00:00:11	1.196	-2.240			
00:00:11	1.195	-1.931			
00:00:11	1.195	-1.404			
00:00:11	1.195	-2.054			
00:00:11	1.195	-2.492			
00:00:11	1.194	-2.622			
00:00:11	1.194	-2.654			
00:00:11	1.194	-2.412			
00:00:11	1.194	-2.608			
00:00:11	1.193	-1.718			
00:00:11	1.193	-3.231			
00:00:11	1.193	-2.434			
00:00:11	1.193	-2.924			
00:00:11	1.191	0.914			
00:00:11	1.191	-2.418			
00:00:11	1.191	-0.860			
00:00:11	1.191	0.974			
00:00:11	1.190	1.280			
00:00:11	1.190	2.640			
00:00:11	1.190	21.718			
00:00:11	1.190	23.365			
00:00:11	1.190	24.251			
00:00:11	1.190	23.766			
00:00:11	1.190	23.433			
00:00:11	1.190	23.093			
00:00:11	1.189	22.764			
00:00:11	1.189	21.871			
00:00:11	1.189	12.720			
00:00:11	1.189	14.928			
00:00:11	1.188	12.720			
00:00:11	1.188	11.378			
00:00:11	1.188	9.142			
00:00:11	1.188	9.638			
00:00:11	1.187	1.083			
00:00:11	1.187	1.445			
00:00:11	1.187	1.860			
00:00:11	1.187	2.448			
00:00:11	1.186	1.119			
00:00:11	1.186	1.423			
00:00:11	1.186	2.097			
00:00:11	1.186	2.453			
00:00:11	1.185	2.235			
00:00:11	1.185	1.397			
00:00:11	1.185	-1.829			
00:00:11	1.185	-0.906			
00:00:11	1.184	-0.963			
00:00:11	1.184	-1.344			
00:00:11	1.184	-1.738			
00:00:11	1.184	-2.238			
00:00:11	1.184	-2.664			
00:00:11	1.184	-2.664			
00:00:11	1.184	-2.371			
00:00:11	1.184	-2.151			
00:00:11	1.184	-1.866			
00:00:11	1.184	-2.162			
00:00:11	1.184	-1.874			
00:00:11	1.184	-1.730			
00:00:11	1.183	-0.358			
00:00:11	1.183	-1.327			
00:00:11	1.183	-1.365			
00:00:11	1.183	-1.565			
00:00:11	1.183	-2.066			
00:00:11	1.183	-1.694			
00:00:11	1.183	-1.606			
00:00:11	1.183	-1.268			
00:00:11	1.182	-0.848			
00:00:11	1.182	-0.791			
00:00:11	1.182	-1.370			
00:00:11	1.182	1.380			
00:00:11	1.182	6.175			
00:00:11	1.182	12.843			
00:00:11	1.182	15.165			
00:00:11	1.182	23.497			
00:00:11	1.181	24.220			
00:00:11	1.181	24.368			
00:00:11	1.181	24.103			
00:00:11	1.181	22.924			
00:00:11	1.180	19.894			
00:00:11	1.180	14.092			
00:00:11	1.180	13.384			
00:00:11	1.180	12.301			
00:00:11	1.180	10.567			
00:00:11	1.180	9.263			
00:00:11	1.180	5.721			
00:00:11	1.180	3.989			
00:00:11	1.179	0.839			
00:00:11	1.179	1.838			
00:00:11	1.179	1.683			
00:00:11	1.179	1.259			
00:00:12	1.179	1.132			
00:00:12	1.179	0.232			
00:00:12	1.179	0.215			
00:00:12	1.179	0.215			
00:00:12	1.179	0.985			
00:00:12	1.179	2.616			
00:00:12	1.179	3.180			
00:00:12	1.179	2.754			
00:00:12	1.178	0.355			
00:00:12	1.178	-1.331			
00:00:12	1.178	-0.265			
00:00:12	1.178	-0.307			
00:00:12	1.177	-0.677			
00:00:12	1.177	-2.228			
00:00:12	1.177	-2.553			
00:00:12	1.177	-2.336			
00:00:12	1.177	-1.852			
00:00:12	1.177	-1.576			
00:00:12	1.177	-1.917			
00:00:12	1.177	-2.129			
00:00:12	1.176	-1.932			
00:00:12	1.176	-1.797			
00:00:12	1.176	-1.258			
00:00:12	1.176	4.894			
00:00:12	1.175	10.222			
00:00:12	1.175	15.723			
00:00:12	1.175	22.251			
00:00:12	1.175	25.386			
00:00:12	1.174	23.705			
00:00:12	1.174	22.001			
00:00:12	1.174	16.428			
00:00:12	1.174	13.669			
00:00:12	1.173	12.016			
00:00:12	1.173	8.331			
00:00:12	1.173	7.004			
00:00:12	1.173	6.212			
00:00:12	1.173	4.921			
00:00:12	1.173	3.715			
00:00:12	1.173	1.330			
00:00:12	1.173	1.012			
00:00:12	1.172	1.302			
00:00:12	1.172	2.044			
00:00:12	1.172	1.883			
00:00:12	1.172	1.511			
00:00:12	1.172	0.677			
00:00:12	1.172	-0.937			
00:00:12	1.172	-0.883			
00:00:12	1.172	-2.396			
00:00:12	1.171	-1.762			
00:00:12	1.171	-1.762			
00:00:12	1.171	-1.857			
00:00:12	1.171	-2.026			
00:00:12	1.170	-2.360			
00:00:12	1.170	-0.964			
00:00:12	1.170	-1.140			
00:00:12	1.170	-1.246			
00:00:12	1.170	-0.906			
00:00:12	1.170	-1.143			
00:00:12	1.170	-0.903			
00:00:12	1.170	-0.553			
00:00:12	1.170	-1.000			
00:00:12	1.170	-1.636			
00:00:12	1.170	-2.110			
00:00:12	1.170	-1.523			
00:00:12	1.169	0.225			
00:00:12	1.169	-1.523			
00:00:12	1.169	0.225			
00:00:12	1.169	1.390			
00:00:12	1.169	2.856			
00:00:12	1.169	4.981			
00:00:12	1.169	21.847			
00:00:12	1.169	23.431			
00:00:12	1.169	24.743			
00:00:12	1.169	25.290			
00:00:12	1.169	25.922			
00:00:12	1.169	25.408			
00:00:12	1.168	24.423			
00:00:12	1.168	22.921			
00:00:12	1.168	21.857			
00:00:12	1.168	20.680			
00:00:12	1.168	16.657			
00:00:12	1.168	15.447			
00:00:12	1.168	14.148			
00:00:12	1.168	12.943			
00:00:12	1.168	12.015			
00:00:12	1.168	4.977			
00:00:12	1.168	3.517			
00:00:12	1.168	2.032			
00:00:12	1.167	1.265			
00:00:12	1.167	1.330			
00:00:12	1.167	1.692			
00:00:12	1.167	1.685			
00:00:12	1.167	1.954			
00:00:12	1.167	1.968			
00:00:12	1.167	1.940			
00:00:12	1.167	1.748			
00:00:12	1.167	1.955			
00:00:12	1.167	1.706			
00:00:12	1.167	1.621			
00:00:12	1.167	1.210			
00:00:12	1.166	-2.242			
00:00:12	1.166	-1.693			
00:00:12	1.166	-1.682			
00:00:12	1.166	-2.272			
00:00:12	1.165	-2.308			
00:00:12	1.165	0.353			
00:00:12	1.165	-0.180			
00:00:12	1.165	-0.123			
00:00:12	1.165	-1.250			
00:00:12	1.165	-0.843			
00:00:12	1.165	-1.808			
00:00:12	1.165	-1.477			
00:00:12	1.165	-1.648			
00:00:12	1.165	-1.808			
00:00:12	1.165	-1.598			
00:00:12	1.165	-1.179			
00:00:12	1.164	-0.129			
00:00:12	1.164	1.498			
00:00:12	1.164	3.105			
00:00:12	1.164	17.276			
00:00:12	1.164	14.879			
00:00:12	1.164	22.875			
00:00:12	1.164	19.914			
00:00:12	1.164	19.263			
00:00:12	1.163	18.344			
00:00:12	1.163	17.277			
00:00:12	1.163	16.253			
00:00:12	1.163	15.028			
00:00:13	1.163	13.978			
00:00:13	1.163	11.741			
00:00:13	1.163	5.366			
00:00:13	1.163	0.690			
00:00:13	1.162	0.533			
00:00:13	1.162	2.557			
00:00:13	1.162	2.327			
00:00:13	1.162	1.268			
00:00:13	1.161	0.361			
00:00:13	1.161	0.269			
00:00:13	1.161	-0.099			
00:00:13	1.161	-0.357			
00:00:13	1.161	-0.991			
00:00:13	1.161	-1.608			
00:00:13	1.161	-1.818			
00:00:13	1.161	-1.879			
00:00:13	1.161	-1.879			
00:00:13	1.161	-1.625			
00:00:13	1.161	-2.083			
00:00:13	1.161	-2.150			
00:00:13	1.160	-2.168			
00:00:13	1.160	-1.145			
00:00:13	1.160	-0.573			
00:00:13	1.160	-0.627			
00:00:13	1.159	-0.895			
00:00:13	1.159	-1.076			
00:00:13	1.159	-0.990			
00:00:13	1.159	-0.409			
00:00:13	1.159	2.182			
00:00:13	1.159	4.052			
00:00:13	1.159	6.648			
00:00:13	1.159	9.969			
00:00:13	1.158	21.644			
00:00:13	1.158	23.671			
00:00:13	1.158	18.220			
00:00:13	1.158	16.760			
00:00:13	1.157	13.786			
00:00:13	1.157	9.673			
00:00:13	1.157	7.759			
00:00:13	1.157	2.558			
00:00:13	1.156	1.532			
00:00:13	1.156	0.726			
00:00:13	1.156	1.152			
00:00:13	1.156	1.593			
00:00:13	1.156	1.656			
00:00:13	1.156	1.072			
00:00:13	1.156	1.331			
00:00:13	1.156	1.611			
00:00:13	1.155	1.846			
00:00:13	1.155	2.618			
00:00:13	1.155	2.521			
00:00:13	1.155	1.959			
00:00:13	1.155	1.287			
00:00:13	1.155	1.076			
00:00:13	1.155	0.343			
00:00:13	1.155	-0.091			
00:00:13	1.155	0.102			
00:00:13	1.155	0.036			
00:00:13	1.155	0.009			
00:00:13	1.155	-0.272			
00:00:13	1.154	-0.601			
00:00:13	1.154	-1.525			
00:00:13	1.154	-2.137			
00:00:13	1.154	-2.125			
00:00:13	1.154	-1.839			
00:00:13	1.154	-1.764			
00:00:13	1.154	-1.733			
00:00:13	1.154	-1.972			
00:00:13	1.153	-2.178			
00:00:13	1.153	-2.612			
00:00:13	1.153	-2.938			
00:00:13	1.153	-1.848			
00:00:13	1.153	-2.446			
00:00:13	1.153	-1.848			
00:00:13	1.153	-1.527			
00:00:13	1.153	-1.119			
00:00:13	1.152	-0.834			
00:00:13	1.152	-0.048			
00:00:13	1.152	0.461			
00:00:13	1.152	0.343			
00:00:13	1.152	0.548			
00:00:13	1.152	-0.056			
00:00:13	1.152	-0.867			
00:00:13	1.152	-1.481			
00:00:13	1.151	-1.323			
00:00:13	1.151	18.198			
00:00:13	1.151	20.012			
00:00:13	1.151	22.363			
00:00:13	1.150	23.985			
00:00:13	1.150	24.956			
00:00:13	1.150	25.565			
00:00:13	1.150	25.493			
00:00:13	1.150	25.113			
00:00:13	1.150	23.915			
00:00:13	1.150	22.788			
00:00:13	1.150	21.881			
00:00:13	1.150	20.685			
00:00:13	1.150	19.928			
00:00:13	1.150	19.320			
00:00:13	1.150	18.468			
00:00:13	1.149	17.632			
00:00:13	1.149	15.990			
00:00:13	1.149	14.526			
00:00:13	1.149	13.292			
00:00:13	1.149	12.001			
00:00:13	1.149	10.929			
00:00:13	1.149	8.276			
00:00:13	1.149	0.668			
00:00:13	1.147	1.138			
00:00:13	1.147	2.447			
00:00:13	1.147	0.375			
00:00:13	1.147	0.069			
00:00:13	1.146	-0.444			
00:00:13	1.146	-1.978			
00:00:13	1.146	-2.586			
00:00:13	1.146	-2.979			
00:00:13	1.145	-2.729			
00:00:13	1.145	-2.979			
00:00:13	1.145	-2.080			
00:00:13	1.145	-2.688			
00:00:13	1.145	-2.080			
00:00:13	1.145	-1.432			
00:00:13	1.145	-1.523			
00:00:13	1.145	-0.617			
00:00:13	1.144	-0.117			
00:00:13	1.144	-0.606			
00:00:13	1.144	-0.733			
00:00:13	1.144	-0.842			
00:00:14	1.144	-1.220			
00:00:14	1.144	-1.157			
00:00:14	1.144	-1.073			
00:00:14	1.144	-0.568			
00:00:14	1.144	-0.519			
00:00:14	1.144	-1.341			
00:00:14	1.144	-1.341			
00:00:14	1.144	-1.776			
00:00:14	1.143	-1.949			
00:00:14	1.143	-2.028			
00:00:14	1.143	-1.361			
00:00:14	1.143	-1.070			
00:00:14	1.143	-0.666			
00:00:14	1.143	-0.032			
00:00:14	1.143	14.396			
00:00:14	1.143	16.638			
00:00:14	1.142	18.635			
00:00:14	1.142	20.441			
00:00:14	1.142	22.578			
00:00:14	1.142	23.906			
00:00:14	1.142	24.651			
00:00:14	1.142	25.190			
00:00:14	1.142	24.595			
00:00:14	1.142	23.711			
00:00:14	1.141	22.518			
00:00:14	1.141	22.518			
00:00:14	1.141	19.632			
00:00:14	1.141	18.618			
00:00:14	1.141	17.598			
00:00:14	1.141	16.148			
00:00:14	1.141	13.526			
00:00:14	1.141	11.939			
00:00:14	1.141	11.243			
00:00:14	1.141	9.694			
00:00:14	1.141	6.784			
00:00:14	1.141	4.462			
00:00:14	1.140	3.680			
00:00:14	1.140	2.814			
00:00:14	1.140	2.457			
00:00:14	1.140	1.699			
00:00:14	1.140	0.825			
00:00:14	1.140	0.214			
00:00:14	1.140	-0.409			
00:00:14	1.140	-0.136			
00:00:14	1.139	0.217			
00:00:14	1.139	0.558			
00:00:14	1.139	1.302			
00:00:14	1.139	2.050			
00:00:14	1.139	1.731			
00:00:14	1.139	2.050			
00:00:14	1.139	1.687			
00:00:14	1.139	0.222			
00:00:14	1.138	-0.305			
00:00:14	1.138	-0.933			
00:00:14	1.138	-1.039			
00:00:14	1.138	-1.351			
00:00:14	1.138	-1.550			
00:00:14	1.138	-1.558			
00:00:14	1.138	-1.708			
00:00:14	1.138	-1.671			
00:00:14	1.138	-1.857			
00:00:14	1.138	-2.232			
00:00:14	1.138	-1.964			
00:00:14	1.138	-1.458			
00:00:14	1.137	-2.472			
00:00:14	1.137	-2.799			
00:00:14	1.137	-2.523			
00:00:14	1.137	-2.558			
00:00:14	1.137	-2.233			
00:00:14	1.137	-1.923			
00:00:14	1.137	-1.708			
00:00:14	1.137	-1.178			
00:00:14	1.136	-0.894			
00:00:14	1.136	-1.290			
00:00:14	1.136	-1.217			
00:00:14	1.136	-0.913			
00:00:14	1.136	-1.360			
00:00:14	1.136	-1.919			
00:00:14	1.136	-1.795			
00:00:14	1.136	-2.651			
00:00:14	1.135	19.295			
00:00:14	1.135	23.099			
00:00:14	1.135	23.084			
00:00:14	1.135	15.400			
00:00:14	1.133	5.191			
00:00:14	1.133	4.368			
00:00:14	1.133	3.792			
00:00:14	1.133	2.936			
00:00:14	1.133	2.046			
00:00:14	1.133	1.205			
00:00:14	1.133	0.154			
00:00:14	1.133	0.154			
00:00:14	1.133	0.350			
00:00:14	1.133	0.154			
00:00:14	1.133	1.189			
00:00:14	1.133	2.014			
00:00:14	1.132	1.843			
00:00:14	1.132	1.307			
00:00:14	1.132	0.419			
00:00:14	1.132	0.215			
00:00:14	1.131	-2.239			
00:00:14	1.131	-2.186			
00:00:14	1.131	-2.132			
00:00:14	1.131	-1.443			
00:00:14	1.131	-1.693			
00:00:14	1.131	-2.546			
00:00:14	1.131	-3.123			
00:00:14	1.131	-2.070			
00:00:14	1.131	-1.739			
00:00:14	1.131	-2.134			
00:00:14	1.131	-2.152			
00:00:14	1.131	-2.027			
00:00:14	1.130	-1.900			
00:00:14	1.130	-1.618			
00:00:14	1.130	-1.487			
00:00:14	1.130	-0.437			
00:00:14	1.130	-0.205			
00:00:14	1.130	-1.620			
00:00:14	1.130	-1.232			
00:00:14	1.130	-0.610			
00:00:14	1.129	0.930			
00:00:14	1.129	2.948			
00:00:14	1.129	5.279			
00:00:14	1.129	7.438			
00:00:14	1.129	9.542			
00:00:14	1.129	11.688			
00:00:14	1.129	13.749			
00:00:14	1.129	16.066			
00:00:15	1.128	18.726			
00:00:15	1.128	20.715			
00:00:15	1.128	22.214			
00:00:15	1.128	16.720			
00:00:15	1.127	13.387			
00:00:15	1.127	10.013			
00:00:15	1.127	9.751			
00:00:15	1.127	9.494			
00:00:15	1.127	9.064			
00:00:15	1.127	7.610			
00:00:15	1.127	5.423			
00:00:15	1.127	3.365			
00:00:15	1.127	0.373			
00:00:15	1.127	0.139			
00:00:15	1.127	0.117			
00:00:15	1.127	0.624			
00:00:15	1.126	0.624			
00:00:15	1.126	0.789			
00:00:15	1.126	0.548			
00:00:15	1.126	0.051			
00:00:15	1.126	-0.977			
00:00:15	1.126	-1.322			
00:00:15	1.126	-1.139			
00:00:15	1.126	-0.270			
00:00:15	1.126	1.164			
00:00:15	1.126	2.174			
00:00:15	1.126	-0.375			
00:00:15	1.126	0.055			
00:00:15	1.125	0.873			
00:00:15	1.125	1.451			
00:00:15	1.125	-2.140			
00:00:15	1.125	-2.151			
00:00:15	1.125	-1.439			
00:00:15	1.125	-0.016			
00:00:15	1.125	-0.482			
00:00:15	1.125	-4.115			
00:00:15	1.124	-2.467			
00:00:15	1.124	-1.715			
00:00:15	1.124	-3.269			
00:00:15	1.124	-1.827			
00:00:15	1.123	-0.853			
00:00:15	1.123	-1.997			
00:00:15	1.123	-3.697			
00:00:15	1.123	-3.597			
00:00:15	1.122	-0.074			
00:00:15	1.122	-1.753			
00:00:15	1.122	-0.537			
00:00:15	1.122	-3.423			
00:00:15	1.121	1.427			
00:00:15	1.121	13.274			
00:00:15	1.121	15.209			
00:00:15	1.121	17.385			
00:00:15	1.120	20.371			
00:00:15	1.120	22.903			
00:00:15	1.120	20.889			
00:00:15	1.120	20.826			
00:00:15	1.120	20.889			
00:00:15	1.120	21.130			
00:00:15	1.120	20.578			
00:00:15	1.120	18.995			
00:00:15	1.119	16.659			
00:00:15	1.119	13.866			
00:00:15	1.119	10.272			
00:00:15	1.119	8.280			
00:00:15	1.119	5.094			
00:00:15	1.119	2.614			
00:00:15	1.119	1.105			
00:00:15	1.119	0.845			
00:00:15	1.119	1.498			
00:00:15	1.119	1.975			
00:00:15	1.119	2.421			
00:00:15	1.119	1.670			
00:00:15	1.118	-2.323			
00:00:15	1.118	0.816			
00:00:15	1.118	2.343			
00:00:15	1.118	3.189			
00:00:15	1.117	-0.228			
00:00:15	1.117	-2.411			
00:00:15	1.117	-3.401			
00:00:15	1.117	-3.059			
00:00:15	1.117	-1.149			
00:00:15	1.117	0.569			
00:00:15	1.117	0.808			
00:00:15	1.117	0.808			
00:00:15	1.116	0.094			
00:00:15	1.116	-2.155			
00:00:15	1.116	-4.518			
00:00:15	1.116	-6.068			
00:00:15	1.116	-0.647			
00:00:15	1.116	0.481			
00:00:15	1.116	-3.157			
00:00:15	1.116	-5.358			
00:00:15	1.115	-0.345			
00:00:15	1.115	-1.871			
00:00:15	1.115	-4.750			
00:00:15	1.115	-4.006			
00:00:15	1.114	-2.189			
00:00:15	1.114	-4.647			
00:00:15	1.114	-2.445			
00:00:15	1.114	-5.295			
00:00:15	1.114	-0.103			
00:00:15	1.114	0.940			
00:00:15	1.114	0.041			
00:00:15	1.114	-0.103			
00:00:15	1.114	0.940			
00:00:15	1.114	0.041			
00:00:15	1.114	-5.438			
00:00:15	1.114	-4.717			
00:00:15	1.113	2.135			
00:00:15	1.113	3.925			
00:00:15	1.113	7.382			
00:00:15	1.113	12.264			
00:00:15	1.112	17.093			
00:00:15	1.112	20.649			
00:00:15	1.112	22.134			
00:00:15	1.112	21.885			
00:00:15	1.112	20.791			
00:00:15	1.112	20.120			
00:00:15	1.112	23.570			
00:00:15	1.112	20.719			
00:00:15	1.111	17.448			
00:00:15	1.111	14.729			
00:00:15	1.111	7.485			
00:00:15	1.111	7.083			
00:00:15	1.110	-0.882			
00:00:15	1.110	2.087			
00:00:15	1.110	-2.500			
00:00:15	1.110	-1.617			
00:00:16	1.109	0.735			
00:00:16	1.109	3.187			
00:00:16	1.109	3.943			
00:00:16	1.109	2.643			
00:00:16	1.108	1.613			
00:00:16	1.108	1.613			
00:00:16	1.108	-0.711			
00:00:16	1.108	-4.984			
00:00:16	1.108	-5.641			
00:00:16	1.108	-4.658			
00:00:16	1.108	-2.825			
00:00:16	1.108	-3.168			
00:00:16	1.107	-5.277			
00:00:16	1.107	-5.277			
00:00:16	1.107	-1.866			
00:00:16	1.107	-5.898			
00:00:16	1.106	-6.191			
00:00:16	1.106	-0.896			
00:00:16	1.106	-1.189			
00:00:16	1.106	-2.575			
00:00:16	1.106	-5.739			
00:00:16	1.106	-5.347			
00:00:16	1.106	-3.544			
00:00:16	1.106	0.541			
00:00:16	1.105	-1.228			
00:00:16	1.105	-3.523			
00:00:16	1.105	-4.602			
00:00:16	1.105	-4.081			
00:00:16	1.105	-2.380			
00:00:16	1.105	-0.565			
00:00:16	1.105	0.255			
00:00:16	1.105	-4.520			
00:00:16	1.104	-0.733			
00:00:16	1.104	-1.520			
00:00:16	1.104	-2.071			
00:00:16	1.104	-1.178			
00:00:16	1.104	1.729			
00:00:16	1.104	6.646			
00:00:16	1.104	15.408			
00:00:16	1.104	17.842			
00:00:16	1.103	17.404			
00:00:16	1.103	24.704			
00:00:16	1.103	25.507			
00:00:16	1.103	16.884			
00:00:16	1.102	17.963			
00:00:16	1.102	17.135			
00:00:16	1.102	14.901			
00:00:16	1.102	11.750			
00:00:16	1.101	8.410			
00:00:16	1.101	5.872			
00:00:16	1.101	6.480			
00:00:16	1.101	7.513			
00:00:16	1.100	6.868			
00:00:16	1.100	2.075			
00:00:16	1.100	0.425			
00:00:16	1.100	-3.059			
00:00:16	1.099	1.958			
00:00:16	1.099	-2.536			
00:00:16	1.099	-0.224			
00:00:16	1.099	1.738			
00:00:16	1.098	-0.754			
00:00:16	1.098	-0.114			
00:00:16	1.098	0.396			
00:00:16	1.098	-0.897			
00:00:16	1.097	-0.811			
00:00:16	1.097	0.156			
00:00:16	1.097	-0.558			
00:00:16	1.097	-2.365			
00:00:16	1.097	-4.628			
00:00:16	1.097	-5.393			
00:00:16	1.097	-3.608			
00:00:16	1.097	-0.838			
00:00:16	1.096	-4.190			
00:00:16	1.096	-2.419			
00:00:16	1.096	1.261			
00:00:16	1.096	1.341			
00:00:16	1.095	-2.751			
00:00:16	1.095	0.906			
00:00:16	1.095	-1.126			
00:00:16	1.095	-3.008			
00:00:16	1.093	2.709			
00:00:16	1.093	17.701			
00:00:16	1.093	21.097			
00:00:16	1.093	19.366			
00:00:16	1.092	18.981			
00:00:16	1.092	18.981			
00:00:16	1.092	12.733			
00:00:16	1.092	11.640			
00:00:16	1.091	3.163			
00:00:16	1.091	1.229			
00:00:16	1.091	2.154			
00:00:16	1.091	-0.791			
00:00:16	1.090	-0.049			
00:00:16	1.090	-0.060			
00:00:16	1.090	1.715			
00:00:16	1.090	1.300			
00:00:16	1.089	1.430			
00:00:16	1.089	1.138			
00:00:16	1.089	0.591			
00:00:16	1.089	0.320			
00:00:16	1.089	-0.162			
00:00:16	1.089	-0.282			
00:00:16	1.089	-0.699			
00:00:16	1.089	-0.924			
00:00:16	1.088	-2.279			
00:00:16	1.088	-2.660			
00:00:16	1.088	-2.926			
00:00:16	1.088	-3.671			
00:00:16	1.088	-3.831			
00:00:16	1.088	-3.775			
00:00:16	1.088	-3.949			
00:00:16	1.088	-3.724			
00:00:16	1.087	-3.564			
00:00:16	1.087	-3.613			
00:00:16	1.087	-3.528			
00:00:16	1.087	-3.224			
00:00:16	1.086	-3.314			
00:00:16	1.086	-2.893			
00:00:16	1.086	-2.527			
00:00:16	1.086	-2.563			
00:00:16	1.086	-2.150			
00:00:16	1.086	-1.937			
00:00:16	1.086	-2.495			
00:00:16	1.086	-3.043			
00:00:16	1.085	-2.677			
00:00:16	1.085	1.230			
00:00:16	1.085	8.247			
00:00:16	1.085	13.392			
00:00:17	1.084	15.610			
00:00:17	1.084	18.853			
00:00:17	1.084	20.857			
00:00:17	1.084	20.814			
00:00:17	1.084	20.123			
00:00:17	1.084	18.922			
00:00:17	1.084	17.738			
00:00:17	1.084	15.427			
00:00:17	1.083	13.167			
00:00:17	1.083	11.418			
00:00:17	1.083	4.819			
00:00:17	1.083	3.457			
00:00:17	1.082	1.453			
00:00:17	1.082	-2.093			
00:00:17	1.082	-1.860			
00:00:17	1.082	-1.860			
00:00:17	1.081	-0.659			
00:00:17	1.081	0.895			
00:00:17	1.081	-0.690			
00:00:17	1.081	-1.688			
00:00:17	1.080	-1.688			
00:00:17	1.080	-2.511			
00:00:17	1.080	-2.478			
00:00:17	1.080	-2.828			
00:00:17	1.079	-3.077			
00:00:17	1.079	-3.267			
00:00:17	1.079	-3.987			
00:00:17	1.079	-3.239			
00:00:17	1.078	-2.991			
00:00:17	1.078	-2.871			
00:00:17	1.078	-2.718			
00:00:17	1.078	-2.331			
00:00:17	1.078	-2.366			
00:00:17	1.078	-2.288			
00:00:17	1.078	-2.252			
00:00:17	1.078	-2.197			
00:00:17	1.077	-0.244			
00:00:17	1.077	6.848			
00:00:17	1.077	12.188			
00:00:17	1.077	14.505			
00:00:17	1.077	19.008			
00:00:17	1.077	20.604			
00:00:17	1.077	21.423			
00:00:17	1.077	22.526			
00:00:17	1.076	22.870			
00:00:17	1.076	22.661			
00:00:17	1.076	21.986			
00:00:17	1.076	21.986			
00:00:17	1.076	21.557			
00:00:17	1.076	19.071			
00:00:17	1.076	18.244			
00:00:17	1.076	15.307			
00:00:17	1.075	8.720			
00:00:17	1.075	7.387			
00:00:17	1.075	6.058			
00:00:17	1.075	4.622			
00:00:17	1.075	3.654			
00:00:17	1.075	2.755			
00:00:17	1.075	-1.230			
00:00:17	1.075	-0.075			
00:00:17	1.074	-0.765			
00:00:17	1.074	-1.230			
00:00:17	1.074	-0.633			
00:00:17	1.074	-0.568			
00:00:17	1.074	-0.507			
00:00:17	1.074	-0.401			
00:00:17	1.074	-0.826			
00:00:17	1.074	-1.925			
00:00:17	1.073	-1.925			
00:00:17	1.073	-3.371			
00:00:17	1.073	-4.229			
00:00:17	1.073	-4.146			
00:00:17	1.072	-4.530			
00:00:17	1.072	-4.563			
00:00:17	1.072	-3.948			
00:00:17	1.072	-3.981			
00:00:17	1.071	-3.716			
00:00:17	1.071	-3.338			
00:00:17	1.071	-3.614			
00:00:17	1.071	-1.892			
00:00:17	1.070	0.926			
00:00:17	1.070	3.228			
00:00:17	1.070	-0.660			
00:00:17	1.070	18.409			
00:00:17	1.070	20.072			
00:00:17	1.070	21.670			
00:00:17	1.070	22.676			
00:00:17	1.070	21.222			
00:00:17	1.070	20.594			
00:00:17	1.070	19.539			
00:00:17	1.070	18.455			
00:00:17	1.070	16.171			
00:00:17	1.069	11.527			
00:00:17	1.069	4.850			
00:00:17	1.069	3.350			
00:00:17	1.069	2.331			
00:00:17	1.069	1.084			
00:00:17	1.069	0.210			
00:00:17	1.069	-1.840			
00:00:17	1.069	-2.227			
00:00:17	1.069	-2.438			
00:00:17	1.069	-2.112			
00:00:17	1.069	-2.247			
00:00:17	1.069	-1.391			
00:00:17	1.068	-1.216			
00:00:17	1.068	-0.970			
00:00:17	1.068	-0.970			
00:00:17	1.068	-0.947			
00:00:17	1.068	-1.146			
00:00:17	1.068	-1.497			
00:00:17	1.068	-1.968			
00:00:17	1.068	-2.199			
00:00:17	1.068	-2.512			
00:00:17	1.068	-2.501			
00:00:17	1.068	-3.273			
00:00:17	1.068	-3.362			
00:00:17	1.068	-3.594			
00:00:17	1.068	-3.627			
00:00:17	1.068	-4.059			
00:00:17	1.068	-4.472			
00:00:17	1.068	-4.668			
00:00:17	1.068	-4.466			
00:00:17	1.068	-4.686			
00:00:17	1.068	-4.000			
00:00:17	1.067	-4.008			
00:00:17	1.067	-3.779			
00:00:17	1.067	-3.750			
00:00:17	1.067	-3.937			
00:00:18	1.067	-3.668			
00:00:18	1.067	-3.714			
00:00:18	1.067	-3.720			
00:00:18	1.067	-3.695			
00:00:18	1.067	-3.164			
00:00:18	1.067	-1.332			
00:00:18	1.067	0.227			
00:00:18	1.067	2.090			
00:00:18	1.067	7.168			
00:00:18	1.067	15.348			
00:00:18	1.067	17.764			
00:00:18	1.067	20.420			
00:00:18	1.067	21.159			
00:00:18	1.067	21.376			
00:00:18	1.067	20.894			
00:00:18	1.067	19.424			
00:00:18	1.067	17.469			
00:00:18	1.067	16.259			
00:00:18	1.067	14.801			
00:00:18	1.067	13.164			
00:00:18	1.066	12.258			
00:00:18	1.066	11.234			
00:00:18	1.066	10.221			
00:00:18	1.066	9.525			
00:00:18	1.066	8.684			
00:00:18	1.066	7.429			
00:00:18	1.066	6.069			
00:00:18	1.066	4.823			
00:00:18	1.066	-1.452			
00:00:18	1.066	0.093			
00:00:18	1.066	-2.198			
00:00:18	1.066	-1.982			
00:00:18	1.066	-0.871			
00:00:18	1.066	-0.764			
00:00:18	1.066	-1.206			
00:00:18	1.066	-0.957			
00:00:18	1.066	-0.889			
00:00:18	1.066	-1.045			
00:00:18	1.066	-1.192			
00:00:18	1.066	-2.179			
00:00:18	1.065	-2.779			
00:00:18	1.065	-3.132			
00:00:18	1.065	-3.665			
00:00:18	1.065	-3.990			
00:00:18	1.065	-3.990			
00:00:18	1.065	-4.040			
00:00:18	1.065	-4.111			
00:00:18	1.065	-3.915			
00:00:18	1.065	-4.147			
00:00:18	1.065	-4.372			
00:00:18	1.065	-4.355			
00:00:18	1.065	-4.434			
00:00:18	1.065	-4.422			
00:00:18	1.065	-4.125			
00:00:18	1.065	-4.007			
00:00:18	1.065	-3.883			
00:00:18	1.065	-3.773			
00:00:18	1.065	-3.880			
00:00:18	1.065	-3.841			
00:00:18	1.065	-4.210			
00:00:18	1.065	-4.239			
00:00:18	1.065	-3.745			
00:00:18	1.065	-3.480			
00:00:18	1.065	-3.190			
00:00:18	1.064	6.728			
00:00:18	1.064	11.604			
00:00:18	1.064	16.802			
00:00:18	1.064	21.213			
00:00:18	1.063	19.410			
00:00:18	1.063	13.528			
00:00:18	1.063	13.528			
00:00:18	1.063	4.957			
00:00:18	1.063	3.905			
00:00:18	1.063	3.023			
00:00:18	1.063	1.766			
00:00:18	1.063	-1.523			
00:00:18	1.063	-1.372			
00:00:18	1.063	-0.766			
00:00:18	1.063	-0.872			
00:00:18	1.063	-0.840			
00:00:18	1.062	-0.777			
00:00:18	1.062	-1.079			
00:00:18	1.062	-0.732			
00:00:18	1.062	-0.642			
00:00:18	1.062	-0.603			
00:00:18	1.062	-0.287			
00:00:18	1.062	-0.337			
00:00:18	1.062	-0.822			
00:00:18	1.062	-1.540			
00:00:18	1.062	-1.540			
00:00:18	1.062	-2.439			
00:00:18	1.062	-3.334			
00:00:18	1.061	-3.841			
00:00:18	1.061	-4.309			
00:00:18	1.061	-4.009			
00:00:18	1.061	-3.714			
00:00:18	1.061	-4.079			
00:00:18	1.061	-4.665			
00:00:18	1.061	-4.472			
00:00:18	1.061	-4.792			
00:00:18	1.061	-4.714			
00:00:18	1.061	-4.889			
00:00:18	1.061	-4.347			
00:00:18	1.061	-4.267			
00:00:18	1.060	-3.864			
00:00:18	1.060	-3.303			
00:00:18	1.060	-2.995			
00:00:18	1.060	-2.828			
00:00:18	1.060	-3.116			
00:00:18	1.060	-3.261			
00:00:18	1.060	-3.278			
00:00:18	1.060	-3.713			
00:00:18	1.060	-3.655			
00:00:18	1.060	-3.863			
00:00:18	1.060	-3.881			
00:00:18	1.060	-3.868			
00:00:18	1.060	-4.172			
00:00:18	1.060	-3.841			
00:00:18	1.060	-3.136			
00:00:18	1.060	-2.156			
00:00:18	1.059	-0.040			
00:00:18	1.059	5.710			
00:00:18	1.059	8.615			
00:00:18	1.059	22.464			
00:00:18	1.059	22.361			
00:00:18	1.059	21.725			
00:00:18	1.059	19.324			
00:00:18	1.059	18.575			
00:00:19	1.058	17.070			
00:00:19	1.058	16.230			
00:00:19	1.058	15.260			
00:00:19	1.058	13.898			
00:00:19	1.058	12.860			
00:00:19	1.058	11.760			
00:00:19	1.058	10.739			
00:00:19	1.058	9.755			
00:00:19	1.058	8.890			
00:00:19	1.058	8.120			
00:00:19	1.058	6.905			
00:00:19	1.058	5.449			
00:00:19	1.057	3.990			
00:00:19	1.057	-1.094			
00:00:19	1.057	-1.256			
00:00:19	1.057	-0.477			
00:00:19	1.057	-0.571			
00:00:19	1.057	-0.540			
00:00:19	1.057	-0.477			
00:00:19	1.057	-0.625			
00:00:19	1.057	-0.914			
00:00:19	1.057	-0.701			
00:00:19	1.057	-0.692			
00:00:19	1.057	-0.739			
00:00:19	1.056	-1.284			
00:00:19	1.056	-1.538			
00:00:19	1.056	-1.863			
00:00:19	1.056	-3.365			
00:00:19	1.056	-3.365			
00:00:19	1.056	-3.563			
00:00:19	1.056	-3.643			
00:00:19	1.056	-3.408			
00:00:19	1.056	-3.450			
00:00:19	1.056	-3.818			
00:00:19	1.056	-3.854			
00:00:19	1.056	-4.167			
00:00:19	1.055	-4.737			
00:00:19	1.055	-4.944			
00:00:19	1.055	-4.635			
00:00:19	1.055	-4.250			
00:00:19	1.055	-4.406			
00:00:19	1.055	-4.744			
00:00:19	1.055	-5.295			
00:00:19	1.055	-5.115			
00:00:19	1.055	-4.924			
00:00:19	1.055	-4.655			
00:00:19	1.055	-3.968			
00:00:19	1.055	-3.910			
00:00:19	1.054	-3.495			
00:00:19	1.054	-3.144			
00:00:19	1.054	-2.952			
00:00:19	1.054	-2.970			
00:00:19	1.054	-3.137			
00:00:19	1.054	-3.400			
00:00:19	1.054	-4.022			
00:00:19	1.054	-4.332			
00:00:19	1.054	-4.164			
00:00:19	1.054	-4.366			
00:00:19	1.054	-3.522			
00:00:19	1.054	3.237			
00:00:19	1.053	6.193			
00:00:19	1.053	9.195			
00:00:19	1.053	12.433			
00:00:19	1.053	17.858			
00:00:19	1.053	21.033			
00:00:19	1.053	23.263			
00:00:19	1.053	23.282			
00:00:19	1.053	22.658			
00:00:19	1.052	22.220			
00:00:19	1.052	21.686			
00:00:19	1.052	21.006			
00:00:19	1.052	20.055			
00:00:19	1.052	18.721			
00:00:19	1.052	17.677			
00:00:19	1.052	16.461			
00:00:19	1.052	14.898			
00:00:19	1.052	13.695			
00:00:19	1.052	10.390			
00:00:19	1.052	8.570			
00:00:19	1.052	7.458			
00:00:19	1.051	6.156			
00:00:19	1.051	5.019			
00:00:19	1.051	3.619			
00:00:19	1.051	2.457			
00:00:19	1.051	1.238			
00:00:19	1.051	0.391			
00:00:19	1.051	-0.974			
00:00:19	1.051	-1.486			
00:00:19	1.051	-1.486			
00:00:19	1.051	-1.213			
00:00:19	1.051	-1.211			
00:00:19	1.051	-1.203			
00:00:19	1.051	-0.444			
00:00:19	1.051	-0.345			
00:00:19	1.051	-0.154			
00:00:19	1.051	0.079			
00:00:19	1.050	-0.106			
00:00:19	1.050	0.079			
00:00:19	1.050	0.171			
00:00:19	1.050	0.375			
00:00:19	1.050	0.199			
00:00:19	1.050	-0.210			
00:00:19	1.050	-0.748			
00:00:19	1.050	-0.973			
00:00:19	1.050	-1.105			
00:00:19	1.050	-1.620			
00:00:19	1.050	-2.089			
00:00:19	1.050	-3.916			
00:00:19	1.049	-3.841			
00:00:19	1.049	-4.251			
00:00:19	1.049	-4.020			
00:00:19	1.049	-3.909			
00:00:19	1.049	-3.991			
00:00:19	1.049	-4.125			
00:00:19	1.049	-3.753			
00:00:19	1.049	-3.998			
00:00:19	1.048	-3.783			
00:00:19	1.048	-3.585			
00:00:19	1.048	-3.627			
00:00:19	1.048	-3.008			
00:00:19	1.048	-2.823			
00:00:19	1.048	-3.114			
00:00:19	1.048	-3.325			
00:00:19	1.048	-3.419			
00:00:19	1.048	-3.320			
00:00:19	1.048	-3.552			
00:00:19	1.048	-3.646			
00:00:19	1.048	-4.071			
00:00:20	1.047	-3.399			
00:00:20	1.047	-2.777			
00:00:20	1.047	-2.087			
00:00:20	1.047	-0.897			
00:00:20	1.047	1.082			
00:00:20	1.047	11.977			
00:00:20	1.047	14.646			
00:00:20	1.047	16.852			
00:00:20	1.046	22.068			
00:00:20	1.046	22.765			
00:00:20	1.046	23.334			
00:00:20	1.046	13.728			
00:00:20	1.046	12.760			
00:00:20	1.046	11.746			
00:00:20	1.046	8.421			
00:00:20	1.046	7.220			
00:00:20	1.045	4.452			
00:00:20	1.045	1.579			
00:00:20	1.045	-1.331			
00:00:20	1.045	-1.654			
00:00:20	1.044	-1.429			
00:00:20	1.044	-0.342			
00:00:20	1.044	0.098			
00:00:20	1.044	0.682			
00:00:20	1.044	0.718			
00:00:20	1.044	0.175			
00:00:20	1.044	-0.199			
00:00:20	1.044	-1.199			
00:00:20	1.043	-1.309			
00:00:20	1.043	-2.165			
00:00:20	1.043	-2.488			
00:00:20	1.043	-3.266			
00:00:20	1.043	-3.259			
00:00:20	1.043	-3.464			
00:00:20	1.043	-3.880			
00:00:20	1.043	-4.087			
00:00:20	1.042	-4.317			
00:00:20	1.042	-4.330			
00:00:20	1.042	-3.995			
00:00:20	1.042	-3.419			
00:00:20	1.042	-3.667			
00:00:20	1.042	-3.667			
00:00:20	1.042	-3.676			
00:00:20	1.042	-3.381			
00:00:20	1.041	-2.485			
00:00:20	1.041	10.162			
00:00:20	1.041	13.044			
00:00:20	1.041	15.743			
00:00:20	1.040	18.026			
00:00:20	1.040	20.183			
00:00:20	1.040	21.605			
00:00:20	1.040	22.310			
00:00:20	1.040	22.800			
00:00:20	1.040	22.786			
00:00:20	1.040	22.430			
00:00:20	1.040	14.383			
00:00:20	1.039	10.900			
00:00:20	1.039	9.837			
00:00:20	1.039	8.211			
00:00:20	1.039	7.160			
00:00:20	1.039	6.070			
00:00:20	1.039	4.714			
00:00:20	1.039	3.550			
00:00:20	1.039	2.089			
00:00:20	1.039	0.666			
00:00:20	1.039	-0.678			
00:00:20	1.039	-1.241			
00:00:20	1.039	-1.681			
00:00:20	1.038	-1.822			
00:00:20	1.038	-1.573			
00:00:20	1.038	-1.787			
00:00:20	1.038	-1.165			
00:00:20	1.038	0.142			
00:00:20	1.038	0.754			
00:00:20	1.038	0.826			
00:00:20	1.038	0.739			
00:00:20	1.038	0.670			
00:00:20	1.038	-0.139			
00:00:20	1.038	-0.618			
00:00:20	1.038	-0.881			
00:00:20	1.037	-1.005			
00:00:20	1.037	-1.080			
00:00:20	1.037	-1.769			
00:00:20	1.037	-1.665			
00:00:20	1.037	-1.985			
00:00:20	1.037	-2.483			
00:00:20	1.037	-2.713			
00:00:20	1.037	-3.962			
00:00:20	1.036	-4.364			
00:00:20	1.036	-4.294			
00:00:20	1.036	-4.553			
00:00:20	1.036	-4.179			
00:00:20	1.036	-4.006			
00:00:20	1.036	-3.849			
00:00:20	1.036	-3.585			
00:00:20	1.036	-3.416			
00:00:20	1.035	-3.302			
00:00:20	1.035	-3.500			
00:00:20	1.035	-2.831			
00:00:20	1.035	-2.831			
00:00:20	1.035	-2.754			
00:00:20	1.035	-2.786			
00:00:20	1.035	-3.006			
00:00:20	1.035	-3.029			
00:00:20	1.035	-3.465			
00:00:20	1.035	-3.677			
00:00:20	1.035	-3.707			
00:00:20	1.035	-3.977			
00:00:20	1.035	-3.801			
00:00:20	1.035	-3.000			
00:00:20	1.035	-2.810			
00:00:20	1.035	-1.852			
00:00:20	1.034	-0.271			
00:00:20	1.034	4.384			
00:00:20	1.034	10.222			
00:00:20	1.034	13.408			
00:00:20	1.034	16.230			
00:00:20	1.034	18.453			
00:00:20	1.034	22.066			
00:00:20	1.034	23.408			
00:00:20	1.033	24.302			
00:00:20	1.033	24.518			
00:00:20	1.033	21.316			
00:00:20	1.033	18.548			
00:00:20	1.033	17.337			
00:00:20	1.033	16.046			
00:00:20	1.033	13.238			
00:00:20	1.033	13.238			
00:00:21	1.033	9.420			
00:00:21	1.033	8.488			
00:00:21	1.033	5.765			
00:00:21	1.033	2.733			
00:00:21	1.032	1.839			
00:00:21	1.032	-0.409			
00:00:21	1.032	-0.912			
00:00:21	1.032	-1.437			
00:00:21	1.032	-1.103			
00:00:21	1.032	-0.524			
00:00:21	1.032	-0.399			
00:00:21	1.032	-0.109			
00:00:21	1.031	-0.124			
00:00:21	1.031	0.081			
00:00:21	1.031	-0.046			
00:00:21	1.031	0.216			
00:00:21	1.031	0.152			
00:00:21	1.031	-0.031			
00:00:21	1.031	-0.031			
00:00:21	1.031	-0.283			
00:00:21	1.031	-0.514			
00:00:21	1.031	-0.555			
00:00:21	1.031	-0.822			
00:00:21	1.031	-0.792			
00:00:21	1.031	-1.433			
00:00:21	1.031	-2.085			
00:00:21	1.031	-2.014			
00:00:21	1.031	-2.046			
00:00:21	1.030	-2.143			
00:00:21	1.030	-4.169			
00:00:21	1.030	-4.213			
00:00:21	1.030	-4.397			
00:00:21	1.029	-4.510			
00:00:21	1.029	-4.457			
00:00:21	1.029	-4.664			
00:00:21	1.029	-4.805			
00:00:21	1.029	-4.441			
00:00:21	1.029	-3.762			
00:00:21	1.029	-3.626			
00:00:21	1.029	-3.688			
00:00:21	1.029	-2.637			
00:00:21	1.029	-2.887			
00:00:21	1.029	-2.836			
00:00:21	1.029	-2.463			
00:00:21	1.028	-2.314			
00:00:21	1.028	-2.967			
00:00:21	1.028	-3.917			
00:00:21	1.028	-4.189			
00:00:21	1.028	-3.980			
00:00:21	1.028	-4.189			
00:00:21	1.028	-3.980			
00:00:21	1.028	-3.769			
00:00:21	1.028	-1.039			
00:00:21	1.028	1.127			
00:00:21	1.028	3.439			
00:00:21	1.028	6.351			
00:00:21	1.027	9.235			
00:00:21	1.027	24.024			
00:00:21	1.027	24.720			
00:00:21	1.027	24.906			
00:00:21	1.026	21.034			
00:00:21	1.026	19.877			
00:00:21	1.026	18.463			
00:00:21	1.026	11.645			
00:00:21	1.026	9.064			
00:00:21	1.026	7.821			
00:00:21	1.026	6.754			
00:00:21	1.026	5.608			
00:00:21	1.026	4.428			
00:00:21	1.026	6.754			
00:00:21	1.026	-2.334			
00:00:21	1.026	-1.154			
00:00:21	1.025	-0.663			
00:00:21	1.025	0.813			
00:00:21	1.025	0.702			
00:00:21	1.025	0.356			
00:00:21	1.024	0.088			
00:00:21	1.024	-0.262			
00:00:21	1.024	-0.283			
00:00:21	1.024	-0.669			
00:00:21	1.024	-2.481			
00:00:21	1.024	-2.481			
00:00:21	1.024	-2.613			
00:00:21	1.024	-3.039			
00:00:21	1.024	-3.399			
00:00:21	1.024	-3.915			
00:00:21	1.024	-4.109			
00:00:21	1.024	-4.105			
00:00:21	1.023	-4.058			
00:00:21	1.023	-3.935			
00:00:21	1.023	-3.907			
00:00:21	1.023	-4.034			
00:00:21	1.022	-3.968			
00:00:21	1.022	-2.666			
00:00:21	1.022	-2.271			
00:00:21	1.022	-2.667			
00:00:21	1.022	-2.713			
00:00:21	1.022	-2.711			
00:00:21	1.022	-2.824			
00:00:21	1.022	-2.799			
00:00:21	1.021	-2.944			
00:00:21	1.021	-3.299			
00:00:21	1.021	-2.417			
00:00:21	1.021	1.649			
00:00:21	1.021	11.288			
00:00:21	1.021	14.292			
00:00:21	1.021	16.819			
00:00:21	1.021	23.433			
00:00:21	1.020	24.089			
00:00:21	1.020	22.771			
00:00:21	1.020	17.096			
00:00:21	1.020	15.610			
00:00:21	1.020	14.123			
00:00:21	1.020	12.819			
00:00:21	1.020	12.819			
00:00:21	1.020	8.742			
00:00:21	1.019	0.868			
00:00:21	1.019	-0.300			
00:00:21	1.019	-0.848			
00:00:21	1.019	-1.964			
00:00:21	1.019	-2.256			
00:00:21	1.019	-2.059			
00:00:21	1.019	-1.905			
00:00:21	1.019	0.633			
00:00:21	1.018	0.738			
00:00:21	1.018	0.882			
00:00:21	1.018	1.003			
00:00:21	1.018	0.836			
00:00:22	1.018	0.623			
00:00:22	1.018	-0.110			
00:00:22	1.018	-0.125			
00:00:22	1.018	-0.908			
00:00:22	1.018	-1.389			
00:00:22	1.018	-1.642			
00:00:22	1.018	-2.213			
00:00:22	1.018	-2.655			
00:00:22	1.017	-2.798			
00:00:22	1.017	-2.885			
00:00:22	1.017	-2.926			
00:00:22	1.017	-3.453			
00:00:22	1.017	-3.453			
00:00:22	1.017	-3.890			
00:00:22	1.017	-3.890			
00:00:22	1.017	-2.798			
00:00:22	1.016	-2.877			
00:00:22	1.016	-2.929			
00:00:22	1.016	-2.404			
00:00:22	1.016	-2.427			
00:00:22	1.015	-0.841			
00:00:22	1.015	12.971			
00:00:22	1.015	18.044			
00:00:22	1.015	23.096			
00:00:22	1.014	24.220			
00:00:22	1.014	17.566			
00:00:22	1.014	17.566			
00:00:22	1.014	16.555			
00:00:22	1.014	13.871			
00:00:22	1.014	12.835			
00:00:22	1.014	6.380			
00:00:22	1.014	-0.093			
00:00:22	1.013	-0.797			
00:00:22	1.013	-1.343			
00:00:22	1.013	-1.219			
00:00:22	1.013	-0.594			
00:00:22	1.013	-0.390			
00:00:22	1.013	0.091			
00:00:22	1.013	0.746			
00:00:22	1.013	1.160			
00:00:22	1.013	1.492			
00:00:22	1.013	1.437			
00:00:22	1.013	1.418			
00:00:22	1.013	0.963			
00:00:22	1.012	0.587			
00:00:22	1.012	0.455			
00:00:22	1.012	0.376			
00:00:22	1.012	-1.981			
00:00:22	1.012	-1.655			
00:00:22	1.012	-1.965			
00:00:22	1.012	-1.981			
00:00:22	1.012	-2.473			
00:00:22	1.012	-2.732			
00:00:22	1.012	-2.545			
00:00:22	1.012	-2.973			
00:00:22	1.012	-3.371			
00:00:22	1.011	-3.683			
00:00:22	1.011	-3.371			
00:00:22	1.011	-3.784			
00:00:22	1.011	-3.410			
00:00:22	1.011	-3.487			
00:00:22	1.011	-3.357			
00:00:22	1.011	-3.443			
00:00:22	1.011	-3.596			
00:00:22	1.011	-3.729			
00:00:22	1.011	-3.251			
00:00:22	1.011	-3.260			
00:00:22	1.011	-2.657			
00:00:22	1.010	-1.673			
00:00:22	1.010	-1.901			
00:00:22	1.010	-2.071			
00:00:22	1.010	-2.527			
00:00:22	1.010	-2.813			
00:00:22	1.010	-2.632			
00:00:22	1.010	-1.800			
00:00:22	1.010	-1.419			
00:00:22	1.010	0.713			
00:00:22	1.010	2.327			
00:00:22	1.010	0.713			
00:00:22	1.010	12.851			
00:00:22	1.009	25.943			
00:00:22	1.009	25.943			
00:00:22	1.009	25.077			
00:00:22	1.009	23.021			
00:00:22	1.008	13.739			
00:00:22	1.008	4.855			
00:00:22	1.008	1.597			
00:00:22	1.008	0.970			
00:00:22	1.008	-0.142			
00:00:22	1.008	-0.409			
00:00:22	1.008	-0.529			
00:00:22	1.008	-0.398			
00:00:22	1.008	-0.542			
00:00:22	1.008	-0.074			
00:00:22	1.008	1.546			
00:00:22	1.008	1.575			
00:00:22	1.007	0.981			
00:00:22	1.007	0.474			
00:00:22	1.007	0.186			
00:00:22	1.007	-0.602			
00:00:22	1.007	-1.408			
00:00:22	1.007	-1.719			
00:00:22	1.007	-2.077			
00:00:22	1.007	-2.421			
00:00:22	1.007	-2.877			
00:00:22	1.007	-3.117			
00:00:22	1.007	-3.419			
00:00:22	1.007	-3.290			
00:00:22	1.007	-3.343			
00:00:22	1.007	-3.669			
00:00:22	1.007	-3.978			
00:00:22	1.007	-3.924			
00:00:22	1.006	-3.788			
00:00:22	1.006	-3.445			
00:00:22	1.006	-2.972			
00:00:22	1.006	-2.840			
00:00:22	1.006	-2.715			
00:00:22	1.006	-1.611			
00:00:22	1.006	-1.496			
00:00:22	1.006	-1.442			
00:00:22	1.006	-1.403			
00:00:22	1.006	-2.130			
00:00:22	1.006	-2.182			
00:00:22	1.006	-2.187			
00:00:22	1.006	3.562			
00:00:22	1.006	5.753			
00:00:22	1.006	11.076			
00:00:22	1.006	16.540			
00:00:23	1.006	19.175			
00:00:23	1.006	24.564			
00:00:23	1.006	24.017			
00:00:23	1.006	17.127			
00:00:23	1.005	11.430			
00:00:23	1.005	10.309			
00:00:23	1.005	9.287			
00:00:23	1.005	8.114			
00:00:23	1.005	2.585			
00:00:23	1.005	-0.537			
00:00:23	1.005	0.043			
00:00:23	1.005	0.646			
00:00:23	1.005	0.863			
00:00:23	1.005	1.377			
00:00:23	1.005	1.711			
00:00:23	1.005	1.420			
00:00:23	1.005	1.274			
00:00:23	1.005	0.832			
00:00:23	1.005	0.457			
00:00:23	1.005	0.457			
00:00:23	1.005	-0.557			
00:00:23	1.005	-0.571			
00:00:23	1.005	-0.898			
00:00:23	1.005	-1.518			
00:00:23	1.005	-2.558			
00:00:23	1.005	-3.402			
00:00:23	1.005	-3.213			
00:00:23	1.005	-3.204			
00:00:23	1.005	-3.257			
00:00:23	1.005	-3.111			
00:00:23	1.005	-3.283			
00:00:23	1.005	-2.919			
00:00:23	1.005	-3.127			
00:00:23	1.005	-2.763			
00:00:23	1.005	-2.161			
00:00:23	1.005	-1.852			
00:00:23	1.005	-1.937			
00:00:23	1.005	-1.746			
00:00:23	1.005	-1.075			
00:00:23	1.005	-0.987			
00:00:23	1.005	-1.212			
00:00:23	1.005	-1.649			
00:00:23	1.005	-1.547			
00:00:23	1.005	-1.882			
00:00:23	1.005	-2.076			
00:00:23	1.005	-1.991			
00:00:23	1.005	-2.110			
00:00:23	1.005	-2.158			
00:00:23	1.005	-2.069			
00:00:23	1.005	-1.949			
00:00:23	1.005	-1.886			
00:00:23	1.005	-1.818			
00:00:23	1.005	-0.845			
00:00:23	1.005	20.102			
00:00:23	1.005	21.788			
00:00:23	1.005	23.040			
00:00:23	1.005	23.444			
00:00:23	1.005	24.060			
00:00:23	1.005	22.557			
00:00:23	1.005	22.104			
00:00:23	1.005	12.884			
00:00:23	1.005	11.802			
00:00:23	1.005	10.734			
00:00:23	1.005	8.595			
00:00:23	1.005	10.734			
00:00:23	1.005	0.488			
00:00:23	1.005	0.235			
00:00:23	1.005	-0.021			
00:00:23	1.005	-0.026			
00:00:23	1.005	-0.057			
00:00:23	1.005	0.220			
00:00:23	1.005	0.711			
00:00:23	1.005	1.244			
00:00:23	1.005	1.582			
00:00:23	1.005	1.448			
00:00:23	1.005	1.642			
00:00:23	1.006	1.861			
00:00:23	1.006	1.861			
00:00:23	1.006	1.631			
00:00:23	1.006	1.467			
00:00:23	1.006	1.262			
00:00:23	1.006	1.152			
00:00:23	1.006	0.652			
00:00:23	1.006	0.703			
00:00:23	1.006	0.747			
00:00:23	1.006	-2.087			
00:00:23	1.006	-2.423			
00:00:23	1.006	-2.668			
00:00:23	1.006	-2.495			
00:00:23	1.006	-2.671			
00:00:23	1.006	-2.495			
00:00:23	1.006	-2.001			
00:00:23	1.007	-1.612			
00:00:23	1.007	-1.405			
00:00:23	1.007	-0.983			
00:00:23	1.007	-1.269			
00:00:23	1.007	-1.400			
00:00:23	1.007	-1.810			
00:00:23	1.007	-2.001			
00:00:23	1.007	-1.942			
00:00:23	1.007	-1.809			
00:00:23	1.007	-1.647			
00:00:23	1.007	-1.733			
00:00:23	1.007	-1.484			
00:00:23	1.007	-1.422			
00:00:23	1.007	-0.993			
00:00:23	1.007	-0.993			
00:00:23	1.007	0.305			
00:00:23	1.007	1.840			
00:00:23	1.007	5.964			
00:00:23	1.007	8.242			
00:00:23	1.007	10.542			
00:00:23	1.008	12.501			
00:00:23	1.008	14.863			
00:00:23	1.008	20.656			
00:00:23	1.008	21.117			
00:00:23	1.008	20.157			
00:00:23	1.008	17.358			
00:00:23	1.008	10.254			
00:00:23	1.008	4.052			
00:00:23	1.008	1.085			
00:00:23	1.008	1.818			
00:00:23	1.008	0.358			
00:00:23	1.008	0.168			
00:00:23	1.009	1.269			
00:00:23	1.009	1.645			
00:00:23	1.009	1.963			
00:00:23	1.009	2.061			
00:00:24	1.009	1.879			
00:00:24	1.009	1.695			
00:00:24	1.009	1.695			
00:00:24	1.009	1.628			
00:00:24	1.009	1.234			
00:00:24	1.009	0.715			
00:00:24	1.009	0.256			
00:00:24	1.009	-0.070			
00:00:24	1.009	-0.671			
00:00:24	1.009	-1.347			
00:00:24	1.009	-1.704			
00:00:24	1.009	-2.277			
00:00:24	1.010	-1.983			
00:00:24	1.010	-2.253			
00:00:24	1.010	-2.510			
00:00:24	1.010	-2.066			
00:00:24	1.010	-1.754			
00:00:24	1.010	-1.754			
00:00:24	1.010	-0.872			
00:00:24	1.010	-1.138			
00:00:24	1.010	-1.138			
00:00:24	1.010	0.632			
00:00:24	1.010	9.268			
00:00:24	1.010	11.672			
00:00:24	1.010	14.243			
00:00:24	1.010	16.626			
00:00:24	1.010	18.683			
00:00:24	1.010	20.766			
00:00:24	1.010	22.808			
00:00:24	1.010	24.310			
00:00:24	1.010	25.112			
00:00:24	1.010	25.476			
00:00:24	1.011	20.849			
00:00:24	1.011	19.801			
00:00:24	1.011	17.307			
00:00:24	1.011	16.452			
00:00:24	1.011	15.344			
00:00:24	1.011	14.124			
00:00:24	1.011	12.984			
00:00:24	1.011	12.335			
00:00:24	1.011	11.312			
00:00:24	1.011	9.956			
00:00:24	1.011	8.984			
00:00:24	1.011	4.550			
00:00:24	1.011	3.335			
00:00:24	1.011	2.732			
00:00:24	1.011	1.828			
00:00:24	1.011	1.106			
00:00:24	1.011	0.696			
00:00:24	1.011	0.310			
00:00:24	1.011	0.296			
00:00:24	1.011	0.176			
00:00:24	1.011	0.696			
00:00:24	1.011	1.743			
00:00:24	1.011	1.901			
00:00:24	1.011	1.372			
00:00:24	1.011	0.192			
00:00:24	1.011	-1.577			
00:00:24	1.011	-1.232			
00:00:24	1.011	-1.669			
00:00:24	1.011	-2.172			
00:00:24	1.011	-1.911			
00:00:24	1.011	-1.849			
00:00:24	1.011	-2.138			
00:00:24	1.011	-2.300			
00:00:24	1.011	-2.484			
00:00:24	1.011	-2.052			
00:00:24	1.011	-1.921			
00:00:24	1.011	-1.618			
00:00:24	1.011	-1.475			
00:00:24	1.011	-1.475			
00:00:24	1.011	-1.292			
00:00:24	1.011	-1.189			
00:00:24	1.011	-0.908			
00:00:24	1.011	-0.958			
00:00:24	1.011	-1.236			
00:00:24	1.011	-0.983			
00:00:24	1.011	-1.226			
00:00:24	1.011	-1.100			
00:00:24	1.011	-1.227			
00:00:24	1.011	-1.257			
00:00:24	1.011	-1.116			
00:00:24	1.011	-1.454			
00:00:24	1.011	-0.702			
00:00:24	1.011	-0.927			
00:00:24	1.011	2.357			
00:00:24	1.011	4.150			
00:00:24	1.011	6.523			
00:00:24	1.011	9.063			
00:00:24	1.011	14.187			
00:00:24	1.011	16.629			
00:00:24	1.011	18.944			
00:00:24	1.011	20.492			
00:00:24	1.011	22.004			
00:00:24	1.011	23.259			
00:00:24	1.011	24.104			
00:00:24	1.011	24.230			
00:00:24	1.011	24.238			
00:00:24	1.011	24.088			
00:00:24	1.011	15.716			
00:00:24	1.011	14.811			
00:00:24	1.011	11.593			
00:00:24	1.011	7.383			
00:00:24	1.011	4.789			
00:00:24	1.011	3.978			
00:00:24	1.011	1.015			
00:00:24	1.011	1.138			
00:00:24	1.011	1.267			
00:00:24	1.011	1.414			
00:00:24	1.011	1.267			
00:00:24	1.011	1.133			
00:00:24	1.011	1.154			
00:00:24	1.011	1.123			
00:00:24	1.011	0.204			
00:00:24	1.011	-1.032			
00:00:24	1.011	-1.425			
00:00:24	1.011	-1.450			
00:00:24	1.011	-1.578			
00:00:24	1.011	-1.500			
00:00:24	1.011	-1.396			
00:00:24	1.011	-1.462			
00:00:24	1.011	-1.441			
00:00:24	1.011	-2.154			
00:00:24	1.011	-2.081			
00:00:24	1.011	-1.839			
00:00:24	1.011	-1.506			
00:00:24	1.011	-1.778			
00:00:24	1.011	-1.927			
00:00:25	1.011	-1.641			
00:00:25	1.011	-1.749			
00:00:25	1.011	-1.566			
00:00:25	1.011	-1.337			
00:00:25	1.011	-1.337			
00:00:25	1.011	-0.929			
00:00:25	1.011	-0.809			
00:00:25	1.011	-0.786			
00:00:25	1.011	-0.858			
00:00:25	1.011	-0.893			
00:00:25	1.011	-0.808			
00:00:25	1.011	-0.932			
00:00:25	1.011	-0.959			
00:00:25	1.011	-0.848			
00:00:25	1.011	-1.827			
00:00:25	1.011	-2.511			
00:00:25	1.012	-2.166			
00:00:25	1.012	2.664			
00:00:25	1.012	9.926			
00:00:25	1.012	15.302			
00:00:25	1.012	21.325			
00:00:25	1.012	23.671			
00:00:25	1.012	23.306			
00:00:25	1.012	22.704			
00:00:25	1.012	21.932			
00:00:25	1.012	21.151			
00:00:25	1.012	18.159			
00:00:25	1.012	13.455			
00:00:25	1.013	9.084			
00:00:25	1.013	7.879			
00:00:25	1.013	6.454			
00:00:25	1.013	1.814			
00:00:25	1.014	1.043			
00:00:25	1.014	1.217			
00:00:25	1.014	1.072			
00:00:25	1.014	1.448			
00:00:25	1.014	1.584			
00:00:25	1.014	1.405			
00:00:25	1.014	1.428			
00:00:25	1.014	-1.068			
00:00:25	1.015	-1.312			
00:00:25	1.015	-2.231			
00:00:25	1.015	-2.231			
00:00:25	1.015	-3.026			
00:00:25	1.016	-3.009			
00:00:25	1.016	-2.714			
00:00:25	1.016	-2.357			
00:00:25	1.016	-2.162			
00:00:25	1.017	-1.850			
00:00:25	1.017	-1.479			
00:00:25	1.017	-1.089			
00:00:25	1.017	-0.872			
00:00:25	1.018	-0.639			
00:00:25	1.018	-0.664			
00:00:25	1.018	-1.191			
00:00:25	1.018	-1.514			
00:00:25	1.020	-2.006			
00:00:25	1.020	-1.223			
00:00:25	1.020	-0.352			
00:00:25	1.020	0.611			
00:00:25	1.021	2.433			
00:00:25	1.021	20.788			
00:00:25	1.021	21.022			
00:00:25	1.021	20.360			
00:00:25	1.024	10.261			
00:00:25	1.024	4.710			
00:00:25	1.024	3.591			
00:00:25	1.024	3.591			
00:00:25	1.027	-0.204			
00:00:25	1.027	0.639			
00:00:25	1.027	1.229			
00:00:25	1.027	-0.126			
00:00:25	1.029	-0.602			
00:00:25	1.029	-1.786			
00:00:25	1.029	-2.133			
00:00:25	1.029	-3.172			
00:00:25	1.031	-2.733			
00:00:25	1.031	-2.874			
00:00:25	1.031	-2.874			
00:00:25	1.031	-1.755			
00:00:25	1.034	-1.568			
00:00:25	1.034	-2.033			
00:00:25	1.034	-2.699			
00:00:25	1.034	-3.004			
00:00:25	1.036	-2.699			
00:00:25	1.036	16.790			
00:00:25	1.036	20.051			
00:00:25	1.036	20.186			
00:00:25	1.040	12.789			
00:00:25	1.040	6.843			
00:00:25	1.040	2.657			
00:00:25	1.040	1.535			
00:00:25	1.043	0.680			
00:00:25	1.043	1.024			
00:00:25	1.043	1.106			
00:00:25	1.043	0.769			
00:00:25	1.045	0.292			
00:00:25	1.045	-0.480			
00:00:25	1.045	-2.731			
00:00:25	1.045	-2.673			
00:00:25	1.047	-3.148			
00:00:25	1.047	-2.884			
00:00:25	1.047	-3.167			
00:00:25	1.047	-3.271			
00:00:25	1.048	-2.871			
00:00:25	1.048	-2.658			
00:00:25	1.048	-2.477			
00:00:25	1.048	-2.497			
00:00:25	1.049	-2.531			
00:00:25	1.049	-2.376			
00:00:25	1.049	-2.686			
00:00:25	1.049	-2.701			
00:00:25	1.050	-2.605			
00:00:25	1.050	-2.186			
00:00:25	1.050	-2.393			
00:00:25	1.050	-2.759			
00:00:25	1.053	-2.326			
00:00:25	1.053	-1.676			
00:00:25	1.053	0.565			
00:00:25	1.053	16.020			
00:00:25	1.056	17.959			
00:00:25	1.056	20.796			
00:00:25	1.056	18.635			
00:00:25	1.056	15.792			
00:00:25	1.058	14.009			
00:00:25	1.058	8.257			
00:00:25	1.058	6.778			
00:00:25	1.058	5.641			
00:00:26	1.060	4.389			
00:00:26	1.060	3.327			
00:00:26	1.060	3.327			
00:00:26	1.060	0.620			
00:00:26	1.063	0.662			
00:00:26	1.063	0.552			
00:00:26	1.063	0.404			
00:00:26	1.063	0.269			
00:00:26	1.066	-0.532			
00:00:26	1.066	-2.682			
00:00:26	1.066	-3.121			
00:00:26	1.066	-3.467			
00:00:26	1.068	-3.306			
00:00:26	1.068	-3.686			
00:00:26	1.068	-3.333			
00:00:26	1.068	-3.493			
00:00:26	1.069	-3.646			
00:00:26	1.069	-3.283			
00:00:26	1.069	-3.313			
00:00:26	1.069	-3.080			
00:00:26	1.071	-3.222			
00:00:26	1.071	-2.929			
00:00:26	1.071	-3.827			
00:00:26	1.071	-3.895			
00:00:26	1.073	-4.161			
00:00:26	1.073	-3.732			
00:00:26	1.073	-2.271			
00:00:26	1.073	1.802			
00:00:26	1.075	6.534			
00:00:26	1.075	18.226			
00:00:26	1.075	17.058			
00:00:26	1.075	14.948			
00:00:26	1.077	15.866			
00:00:26	1.077	14.948			
00:00:26	1.077	6.616			
00:00:26	1.077	8.295			
00:00:26	1.082	-1.675			
00:00:26	1.082	-0.681			
00:00:26	1.082	-0.473			
00:00:26	1.082	-0.673			
00:00:26	1.083	-0.741			
00:00:26	1.083	-0.979			
00:00:26	1.083	-1.170			
00:00:26	1.083	-1.665			
00:00:26	1.085	-2.488			
00:00:26	1.085	-2.659			
00:00:26	1.085	-4.500			
00:00:26	1.085	-4.238			
00:00:26	1.087	-4.259			
00:00:26	1.087	-4.818			
00:00:26	1.087	-4.515			
00:00:26	1.087	-4.141			
00:00:26	1.088	-4.310			
00:00:26	1.088	-4.310			
00:00:26	1.088	-4.506			
00:00:26	1.088	-4.289			
00:00:26	1.088	-4.341			
00:00:26	1.088	-4.296			
00:00:26	1.088	-4.511			
00:00:26	1.088	-4.370			
00:00:26	1.089	-3.829			
00:00:26	1.089	-3.766			
00:00:26	1.089	-3.562			
00:00:26	1.089	-3.448			
00:00:26	1.091	-3.077			
00:00:26	1.091	-3.345			
00:00:26	1.091	-2.937			
00:00:26	1.091	-2.302			
00:00:26	1.092	-0.823			
00:00:26	1.092	1.047			
00:00:26	1.092	3.349			
00:00:26	1.092	7.805			
00:00:26	1.093	10.404			
00:00:26	1.093	12.265			
00:00:26	1.093	14.140			
00:00:26	1.093	15.898			
00:00:26	1.093	16.649			
00:00:26	1.093	16.649			
00:00:26	1.093	18.027			
00:00:26	1.093	15.708			
00:00:26	1.095	12.654			
00:00:26	1.095	11.060			
00:00:26	1.095	10.152			
00:00:26	1.095	9.524			
00:00:26	1.095	8.424			
00:00:26	1.095	7.195			
00:00:26	1.095	3.810			
00:00:26	1.095	1.788			
00:00:26	1.096	1.788			
00:00:26	1.096	1.123			
00:00:26	1.096	-0.163			
00:00:26	1.096	-0.877			
00:00:26	1.097	-1.728			
00:00:26	1.097	-1.596			
00:00:26	1.097	-1.338			
00:00:26	1.097	-1.417			
00:00:26	1.097	-0.950			
00:00:26	1.097	-0.787			
00:00:26	1.097	-0.322			
00:00:26	1.097	-0.166			
00:00:26	1.098	-0.018			
00:00:26	1.098	-0.447			
00:00:26	1.098	-0.459			
00:00:26	1.098	-0.904			
00:00:26	1.099	-1.382			
00:00:26	1.099	-2.342			
00:00:26	1.099	-2.603			
00:00:26	1.099	-2.786			
00:00:26	1.099	-4.236			
00:00:26	1.099	-4.337			
00:00:26	1.099	-4.282			
00:00:26	1.099	-4.497			
00:00:26	1.100	-4.352			
00:00:26	1.100	-3.809			
00:00:26	1.100	-4.143			
00:00:26	1.100	-4.115			
00:00:26	1.100	-3.851			
00:00:26	1.100	-4.171			
00:00:26	1.100	-3.590			
00:00:26	1.100	-3.529			
00:00:26	1.102	-3.395			
00:00:26	1.102	-3.703			
00:00:26	1.102	-2.579			
00:00:26	1.102	15.874			
00:00:26	1.102	17.862			
00:00:26	1.102	18.410			
00:00:26	1.102	17.787			
00:00:26	1.102	13.342			
00:00:27	1.103	12.339			
00:00:27	1.103	11.524			
00:00:27	1.103	9.569			
00:00:27	1.103	7.248			
00:00:27	1.103	6.312			
00:00:27	1.103	3.911			
00:00:27	1.103	3.038			
00:00:27	1.103	1.735			
00:00:27	1.104	1.170			
00:00:27	1.104	-0.031			
00:00:27	1.104	-1.658			
00:00:27	1.104	-1.939			
00:00:27	1.104	-0.973			
00:00:27	1.104	-0.617			
00:00:27	1.104	-0.550			
00:00:27	1.104	-1.405			
00:00:27	1.105	-2.290			
00:00:27	1.105	-2.371			
00:00:27	1.105	-2.805			
00:00:27	1.105	-2.805			
00:00:27	1.105	-3.081			
00:00:27	1.105	-3.781			
00:00:27	1.105	-4.092			
00:00:27	1.105	-4.372			
00:00:27	1.105	-4.878			
00:00:27	1.105	-4.684			
00:00:27	1.105	-4.254			
00:00:27	1.105	-4.278			
00:00:27	1.106	-4.012			
00:00:27	1.106	-3.776			
00:00:27	1.106	-3.995			
00:00:27	1.106	-3.443			
00:00:27	1.106	-3.247			
00:00:27	1.106	-2.892			
00:00:27	1.106	-3.940			
00:00:27	1.106	-3.551			
00:00:27	1.106	-2.986			
00:00:27	1.106	-1.894			
00:00:27	1.106	-0.926			
00:00:27	1.106	1.160			
00:00:27	1.107	16.559			
00:00:27	1.107	18.063			
00:00:27	1.107	19.354			
00:00:27	1.107	20.026			
00:00:27	1.107	20.708			
00:00:27	1.107	20.345			
00:00:27	1.107	18.492			
00:00:27	1.107	20.345			
00:00:27	1.107	15.439			
00:00:27	1.107	14.421			
00:00:27	1.107	13.734			
00:00:27	1.107	10.370			
00:00:27	1.107	8.185			
00:00:27	1.107	4.159			
00:00:27	1.107	2.693			
00:00:27	1.107	1.759			
00:00:27	1.107	-1.379			
00:00:27	1.107	-1.588			
00:00:27	1.107	-1.564			
00:00:27	1.107	-1.375			
00:00:27	1.107	-0.380			
00:00:27	1.107	-0.227			
00:00:27	1.107	0.172			
00:00:27	1.107	-1.443			
00:00:27	1.107	-1.877			
00:00:27	1.107	-2.142			
00:00:27	1.107	-2.544			
00:00:27	1.107	-2.603			
00:00:27	1.107	-3.246			
00:00:27	1.107	-3.546			
00:00:27	1.107	-4.332			
00:00:27	1.107	-5.254			
00:00:27	1.107	-4.905			
00:00:27	1.107	-4.530			
00:00:27	1.107	-4.233			
00:00:27	1.107	-4.132			
00:00:27	1.107	-4.028			
00:00:27	1.107	-4.298			
00:00:27	1.107	-4.369			
00:00:27	1.107	-4.440			
00:00:27	1.107	-3.376			
00:00:27	1.107	-3.532			
00:00:27	1.107	-3.911			
00:00:27	1.107	-3.193			
00:00:27	1.107	-1.725			
00:00:27	1.107	6.947			
00:00:27	1.107	9.889			
00:00:27	1.107	12.088			
00:00:27	1.107	14.675			
00:00:27	1.107	16.954			
00:00:27	1.107	21.309			
00:00:27	1.107	20.818			
00:00:27	1.107	21.294			
00:00:27	1.107	11.278			
00:00:27	1.107	8.668			
00:00:27	1.107	1.620			
00:00:27	1.106	0.675			
00:00:27	1.106	-0.245			
00:00:27	1.106	-0.769			
00:00:27	1.106	-1.411			
00:00:27	1.106	-1.618			
00:00:27	1.106	-1.748			
00:00:27	1.106	-1.369			
00:00:27	1.106	-0.391			
00:00:27	1.106	0.017			
00:00:27	1.106	0.121			
00:00:27	1.106	-0.489			
00:00:27	1.106	-0.854			
00:00:27	1.106	-1.541			
00:00:27	1.106	-1.833			
00:00:27	1.106	-2.117			
00:00:27	1.106	-3.203			
00:00:27	1.106	-4.024			
00:00:27	1.106	-4.338			
00:00:27	1.106	-4.533			
00:00:27	1.106	-4.785			
00:00:27	1.105	-5.090			
00:00:27	1.105	-4.946			
00:00:27	1.105	-4.812			
00:00:27	1.105	-3.819			
00:00:27	1.105	-3.171			
00:00:27	1.105	-3.788			
00:00:27	1.105	-3.265			
00:00:27	1.105	-2.876			
00:00:27	1.105	-3.075			
00:00:27	1.105	-3.794			
00:00:27	1.105	-4.776			
00:00:27	1.105	-2.199			
00:00:28	1.104	-0.623			
00:00:28	1.104	6.727			
00:00:28	1.104	12.509			
00:00:28	1.104	15.032			
00:00:28	1.104	18.499			
00:00:28	1.104	20.237			
00:00:28	1.104	13.222			
00:00:28	1.104	12.170			
00:00:28	1.103	1.485			
00:00:28	1.103	-1.952			
00:00:28	1.103	-1.497			
00:00:28	1.103	-0.647			
00:00:28	1.103	-0.402			
00:00:28	1.103	-0.020			
00:00:28	1.103	-0.427			
00:00:28	1.103	-0.700			
00:00:28	1.102	-0.645			
00:00:28	1.102	-0.645			
00:00:28	1.102	-2.319			
00:00:28	1.102	-2.440			
00:00:28	1.102	-2.604			
00:00:28	1.102	-2.975			
00:00:28	1.102	-3.084			
00:00:28	1.102	-4.625			
00:00:28	1.101	-5.116			
00:00:28	1.101	-4.294			
00:00:28	1.101	-4.779			
00:00:28	1.101	-3.949			
00:00:28	1.101	-3.308			
00:00:28	1.101	-3.745			
00:00:28	1.101	-3.308			
00:00:28	1.101	-3.633			
00:00:28	1.101	-3.795			
00:00:28	1.101	-3.764			
00:00:28	1.101	-0.563			
00:00:28	1.101	0.888			
00:00:28	1.100	3.049			
00:00:28	1.100	5.208			
00:00:28	1.100	7.508			
00:00:28	1.100	12.733			
00:00:28	1.100	15.074			
00:00:28	1.100	17.092			
00:00:28	1.100	18.744			
00:00:28	1.100	19.914			
00:00:28	1.100	20.616			
00:00:28	1.100	20.616			
00:00:28	1.100	20.356			
00:00:28	1.100	19.583			
00:00:28	1.099	11.957			
00:00:28	1.099	10.935			
00:00:28	1.099	9.864			
00:00:28	1.099	9.036			
00:00:28	1.099	7.798			
00:00:28	1.099	6.789			
00:00:28	1.099	5.648			
00:00:28	1.099	4.208			
00:00:28	1.099	0.364			
00:00:28	1.099	-0.243			
00:00:28	1.099	-1.349			
00:00:28	1.099	-1.513			
00:00:28	1.098	-1.381			
00:00:28	1.098	-0.541			
00:00:28	1.098	-0.649			
00:00:28	1.098	-0.364			
00:00:28	1.098	-0.714			
00:00:28	1.098	-0.926			
00:00:28	1.098	-1.360			
00:00:28	1.098	-1.439			
00:00:28	1.098	-1.674			
00:00:28	1.098	-1.998			
00:00:28	1.098	-2.427			
00:00:28	1.098	-2.427			
00:00:28	1.098	-2.804			
00:00:28	1.098	-3.450			
00:00:28	1.098	-3.849			
00:00:28	1.098	-4.323			
00:00:28	1.097	-4.816			
00:00:28	1.097	-4.782			
00:00:28	1.097	-4.759			
00:00:28	1.097	-4.478			
00:00:28	1.097	-4.657			
00:00:28	1.097	-4.818			
00:00:28	1.097	-4.711			
00:00:28	1.097	-4.596			
00:00:28	1.096	-3.366			
00:00:28	1.096	-3.454			
00:00:28	1.096	-3.510			
00:00:28	1.096	-3.863			
00:00:28	1.096	-4.074			
00:00:28	1.096	-4.177			
00:00:28	1.096	0.301			
00:00:28	1.096	5.258			
00:00:28	1.096	8.285			
00:00:28	1.096	10.583			
00:00:28	1.096	13.446			
00:00:28	1.096	20.171			
00:00:28	1.095	21.931			
00:00:28	1.095	22.869			
00:00:28	1.095	23.252			
00:00:28	1.095	20.828			
00:00:28	1.095	20.261			
00:00:28	1.095	19.064			
00:00:28	1.095	17.942			
00:00:28	1.095	17.026			
00:00:28	1.095	16.065			
00:00:28	1.095	14.942			
00:00:28	1.095	7.653			
00:00:28	1.095	9.155			
00:00:28	1.094	5.385			
00:00:28	1.094	2.693			
00:00:28	1.094	-2.104			
00:00:28	1.094	-1.577			
00:00:28	1.094	-1.251			
00:00:28	1.094	-1.161			
00:00:28	1.094	-0.950			
00:00:28	1.094	-0.364			
00:00:28	1.093	-0.087			
00:00:28	1.093	-0.706			
00:00:28	1.093	-0.956			
00:00:28	1.093	-1.084			
00:00:28	1.093	-1.675			
00:00:28	1.093	-1.607			
00:00:28	1.093	-2.106			
00:00:28	1.093	-2.677			
00:00:28	1.093	-3.034			
00:00:28	1.093	-3.034			
00:00:28	1.093	-3.633			
00:00:28	1.093	-4.372			
00:00:29	1.092	-4.739			
00:00:29	1.092	-4.739			
00:00:29	1.092	-4.928			
00:00:29	1.092	-5.029			
00:00:29	1.092	-4.768			
00:00:29	1.092	-4.651			
00:00:29	1.092	-3.527			
00:00:29	1.092	-3.676			
00:00:29	1.091	-3.144			
00:00:29	1.091	-3.375			
00:00:29	1.091	-3.454			
00:00:29	1.091	-3.700			
00:00:29	1.091	-3.700			
00:00:29	1.091	-3.688			
00:00:29	1.091	7.097			
00:00:29	1.091	9.612			
00:00:29	1.091	12.557			
00:00:29	1.091	15.481			
00:00:29	1.091	18.149			
00:00:29	1.091	20.384			
00:00:29	1.090	22.232			
00:00:29	1.090	23.744			
00:00:29	1.090	24.480			
00:00:29	1.090	20.329			
00:00:29	1.089	7.641			
00:00:29	1.089	6.574			
00:00:29	1.089	5.189			
00:00:29	1.089	5.189			
00:00:29	1.089	2.554			
00:00:29	1.089	1.453			
00:00:29	1.089	0.185			
00:00:29	1.089	-0.726			
00:00:29	1.089	-0.945			
00:00:29	1.089	-1.481			
00:00:29	1.089	-1.689			
00:00:29	1.089	-1.791			
00:00:29	1.089	-1.266			
00:00:29	1.089	-0.049			
00:00:29	1.089	0.170			
00:00:29	1.089	0.234			
00:00:29	1.088	0.374			
00:00:29	1.088	-1.428			
00:00:29	1.088	-1.414			
00:00:29	1.088	-2.086			
00:00:29	1.088	-2.204			
00:00:29	1.088	-2.402			
00:00:29	1.088	-2.617			
00:00:29	1.088	-3.124			
00:00:29	1.088	-3.779			
00:00:29	1.088	-4.355			
00:00:29	1.088	-4.844			
00:00:29	1.088	-4.944			
00:00:29	1.087	-5.217			
00:00:29	1.087	-5.662			
00:00:29	1.087	-5.662			
00:00:29	1.087	-4.269			
00:00:29	1.087	-4.063			
00:00:29	1.087	-4.083			
00:00:29	1.087	-3.525			
00:00:29	1.087	-3.327			
00:00:29	1.086	-3.209			
00:00:29	1.086	-2.969			
00:00:29	1.086	-3.403			
00:00:29	1.086	-2.969			
00:00:29	1.086	-3.874			
00:00:29	1.086	-4.139			
00:00:29	1.086	-4.196			
00:00:29	1.086	-3.952			
00:00:29	1.085	4.478			
00:00:29	1.085	7.361			
00:00:29	1.085	10.780			
00:00:29	1.085	16.775			
00:00:29	1.085	21.024			
00:00:29	1.085	22.207			
00:00:29	1.085	23.165			
00:00:29	1.085	23.186			
00:00:29	1.084	21.533			
00:00:29	1.084	20.369			
00:00:29	1.084	19.042			
00:00:29	1.084	16.672			
00:00:29	1.084	13.594			
00:00:29	1.084	5.897			
00:00:29	1.084	0.654			
00:00:29	1.084	-0.410			
00:00:29	1.083	-1.212			
00:00:29	1.083	-1.418			
00:00:29	1.083	-1.684			
00:00:29	1.083	-0.151			
00:00:29	1.082	-0.566			
00:00:29	1.082	-0.956			
00:00:29	1.082	-1.306			
00:00:29	1.082	-1.455			
00:00:29	1.082	-2.172			
00:00:29	1.082	-2.599			
00:00:29	1.082	-2.663			
00:00:29	1.082	-3.184			
00:00:29	1.081	-3.315			
00:00:29	1.081	-3.518			
00:00:29	1.081	-3.802			
00:00:29	1.081	-3.559			
00:00:29	1.081	-4.468			
00:00:29	1.081	-5.015			
00:00:29	1.081	-4.166			
00:00:29	1.081	-4.068			
00:00:29	1.080	-3.881			
00:00:29	1.080	-4.078			
00:00:29	1.080	-4.176			
00:00:29	1.080	-4.058			
00:00:29	1.080	-3.829			
00:00:29	1.080	-3.466			
00:00:29	1.080	-3.405			
00:00:29	1.080	-3.109			
00:00:29	1.080	-3.149			
00:00:29	1.080	-3.437			
00:00:29	1.080	-3.162			
00:00:29	1.080	-3.215			
00:00:29	1.080	-2.985			
00:00:29	1.080	-2.582			
00:00:29	1.080	-2.493			
00:00:29	1.080	-2.247			
00:00:29	1.079	-1.691			
00:00:29	1.079	-0.639			
00:00:29	1.079	0.238			
00:00:29	1.079	2.231			
00:00:29	1.079	17.859			
00:00:29	1.079	19.639			
00:00:29	1.079	21.440			
00:00:29	1.079	22.517			
00:00:30	1.079	22.961			
00:00:30	1.079	22.181			
00:00:30	1.079	20.470			
00:00:30	1.079	19.522			
00:00:30	1.078	18.533			
00:00:30	1.078	17.347			
00:00:30	1.078	9.454			
00:00:30	1.078	8.404			
00:00:30	1.078	7.308			
00:00:30	1.078	5.977			
00:00:30	1.078	-0.428			
00:00:30	1.078	-0.969			
00:00:30	1.077	-1.307			
00:00:30	1.077	-0.947			
00:00:30	1.077	0.650			
00:00:30	1.077	0.903			
00:00:30	1.076	-1.249			
00:00:30	1.076	-4.170			
00:00:30	1.076	-4.365			
00:00:30	1.076	-4.323			
00:00:30	1.076	-4.623			
00:00:30	1.076	-4.623			
00:00:30	1.076	-4.598			
00:00:30	1.076	-4.199			
00:00:30	1.075	-3.978			
00:00:30	1.075	-3.645			
00:00:30	1.075	-3.813			
00:00:30	1.075	-3.334			
00:00:30	1.075	-3.294			
00:00:30	1.075	-3.218			
00:00:30	1.075	-3.497			
00:00:30	1.075	-2.072			
00:00:30	1.075	-0.940			
00:00:30	1.075	0.117			
00:00:30	1.075	4.727			
00:00:30	1.075	23.848			
00:00:30	1.075	23.521			
00:00:30	1.075	22.929			
00:00:30	1.075	22.146			
00:00:30	1.075	20.849			
00:00:30	1.074	19.387			
00:00:30	1.074	16.968			
00:00:30	1.074	15.539			
00:00:30	1.074	14.052			
00:00:30	1.074	12.848			
00:00:30	1.074	11.793			
00:00:30	1.074	11.793			
00:00:30	1.074	10.475			
00:00:30	1.074	9.072			
00:00:30	1.074	7.849			
00:00:30	1.074	6.673			
00:00:30	1.074	5.218			
00:00:30	1.074	4.191			
00:00:30	1.074	3.000			
00:00:30	1.074	1.893			
00:00:30	1.074	0.344			
00:00:30	1.074	-0.763			
00:00:30	1.074	0.372			
00:00:30	1.074	0.386			
00:00:30	1.074	0.246			
00:00:30	1.074	0.847			
00:00:30	1.074	1.077			
00:00:30	1.074	1.044			
00:00:30	1.074	0.819			
00:00:30	1.074	-0.143			
00:00:30	1.074	-0.175			
00:00:30	1.074	-1.311			
00:00:30	1.074	-2.373			
00:00:30	1.073	-2.955			
00:00:30	1.073	-3.315			
00:00:30	1.073	-3.998			
00:00:30	1.073	-4.198			
00:00:30	1.073	-4.394			
00:00:30	1.073	-4.573			
00:00:30	1.073	-4.424			
00:00:30	1.073	-4.490			
00:00:30	1.073	-4.547			
00:00:30	1.073	-3.968			
00:00:30	1.073	-3.650			
00:00:30	1.073	-3.454			
00:00:30	1.073	-3.650			
00:00:30	1.073	-3.458			
00:00:30	1.073	-3.231			
00:00:30	1.073	-3.271			
00:00:30	1.073	-3.107			
00:00:30	1.073	-2.845			
00:00:30	1.073	-2.351			
00:00:30	1.073	-1.892			
00:00:30	1.073	16.998			
00:00:30	1.073	21.579			
00:00:30	1.073	19.583			
00:00:30	1.073	19.583			
00:00:30	1.072	18.329			
00:00:30	1.072	12.842			
00:00:30	1.072	2.431			
00:00:30	1.072	0.171			
00:00:30	1.072	-0.926			
00:00:30	1.072	-1.179			
00:00:30	1.072	-1.387			
00:00:30	1.072	0.829			
00:00:30	1.072	0.739			
00:00:30	1.072	0.149			
00:00:30	1.072	-0.898			
00:00:30	1.072	-1.312			
00:00:30	1.071	-1.477			
00:00:30	1.071	-2.163			
00:00:30	1.071	-4.508			
00:00:30	1.071	-3.779			
00:00:30	1.071	-4.140			
00:00:30	1.071	-4.842			
00:00:30	1.071	-4.640			
00:00:30	1.071	-4.519			
00:00:30	1.071	-4.164			
00:00:30	1.071	-3.666			
00:00:30	1.071	-3.628			
00:00:30	1.071	-3.496			
00:00:30	1.071	-2.612			
00:00:30	1.071	-2.680			
00:00:30	1.071	-2.374			
00:00:30	1.071	-2.427			
00:00:30	1.071	-2.470			
00:00:30	1.071	-2.427			
00:00:30	1.071	-2.855			
00:00:30	1.071	-3.218			
00:00:30	1.071	-2.981			
00:00:30	1.071	-2.836			
00:00:30	1.071	-1.673			
00:00:30	1.071	0.457			
00:00:31	1.071	2.493			
00:00:31	1.071	5.029			
00:00:31	1.071	7.828			
00:00:31	1.071	14.028			
00:00:31	1.071	16.987			
00:00:31	1.071	23.929			
00:00:31	1.071	24.627			
00:00:31	1.071	20.412			
00:00:31	1.070	11.018			
00:00:31	1.070	12.313			
00:00:31	1.070	9.484			
00:00:31	1.070	4.979			
00:00:31	1.070	0.417			
00:00:31	1.070	-0.700			
00:00:31	1.070	-0.648			
00:00:31	1.070	-0.983			
00:00:31	1.070	-0.408			
00:00:31	1.070	0.082			
00:00:31	1.070	0.434			
00:00:31	1.070	0.236			
00:00:31	1.070	-0.127			
00:00:31	1.070	0.252			
00:00:31	1.070	-0.377			
00:00:31	1.070	-0.797			
00:00:31	1.070	-1.787			
00:00:31	1.070	-2.892			
00:00:31	1.070	-3.520			
00:00:31	1.070	-4.687			
00:00:31	1.070	-4.608			
00:00:31	1.070	-4.687			
00:00:31	1.070	-4.568			
00:00:31	1.070	-4.255			
00:00:31	1.069	-4.207			
00:00:31	1.069	-3.052			
00:00:31	1.069	-2.483			
00:00:31	1.069	-1.972			
00:00:31	1.069	-1.535			
00:00:31	1.069	-1.405			
00:00:31	1.069	-1.655			
00:00:31	1.069	-1.821			
00:00:31	1.069	-1.841			
00:00:31	1.069	-1.820			
00:00:31	1.069	-2.197			
00:00:31	1.069	-3.206			
00:00:31	1.069	-3.545			
00:00:31	1.069	-2.264			
00:00:31	1.069	2.915			
00:00:31	1.069	5.893			
00:00:31	1.069	11.626			
00:00:31	1.069	16.889			
00:00:31	1.069	24.701			
00:00:31	1.069	24.335			
00:00:31	1.068	22.721			
00:00:31	1.068	19.562			
00:00:31	1.068	19.562			
00:00:31	1.068	18.138			
00:00:31	1.068	16.576			
00:00:31	1.068	14.227			
00:00:31	1.068	13.360			
00:00:31	1.068	12.219			
00:00:31	1.068	11.298			
00:00:31	1.068	9.979			
00:00:31	1.068	8.310			
00:00:31	1.068	7.079			
00:00:31	1.068	-1.506			
00:00:31	1.068	-1.882			
00:00:31	1.068	-1.666			
00:00:31	1.068	-1.451			
00:00:31	1.068	-1.024			
00:00:31	1.068	-0.268			
00:00:31	1.068	-0.069			
00:00:31	1.068	0.485			
00:00:31	1.068	0.606			
00:00:31	1.068	1.189			
00:00:31	1.068	1.089			
00:00:31	1.068	1.089			
00:00:31	1.068	1.060			
00:00:31	1.068	0.441			
00:00:31	1.068	0.179			
00:00:31	1.068	0.032			
00:00:31	1.067	-0.678			
00:00:31	1.067	-2.534			
00:00:31	1.067	-3.275			
00:00:31	1.067	-4.796			
00:00:31	1.067	-4.913			
00:00:31	1.067	-4.729			
00:00:31	1.067	-4.406			
00:00:31	1.067	-4.296			
00:00:31	1.067	-4.053			
00:00:31	1.067	-3.786			
00:00:31	1.067	-3.413			
00:00:31	1.067	-3.167			
00:00:31	1.067	-3.022			
00:00:31	1.067	-2.526			
00:00:31	1.067	-2.277			
00:00:31	1.067	-2.039			
00:00:31	1.066	-2.009			
00:00:31	1.066	-2.039			
00:00:31	1.066	-1.849			
00:00:31	1.066	-1.929			
00:00:31	1.066	-1.523			
00:00:31	1.066	-1.774			
00:00:31	1.066	-2.275			
00:00:31	1.066	-2.416			
00:00:31	1.066	-2.773			
00:00:31	1.066	-2.835			
00:00:31	1.066	-2.835			
00:00:31	1.066	-2.901			
00:00:31	1.066	-2.204			
00:00:31	1.066	3.137			
00:00:31	1.066	6.199			
00:00:31	1.066	9.035			
00:00:31	1.065	12.020			
00:00:31	1.065	15.074			
00:00:31	1.065	17.485			
00:00:31	1.065	24.179			
00:00:31	1.065	23.897			
00:00:31	1.065	22.336			
00:00:31	1.065	20.039			
00:00:31	1.065	15.581			
00:00:31	1.065	14.160			
00:00:31	1.065	13.313			
00:00:31	1.065	12.295			
00:00:31	1.065	10.080			
00:00:31	1.064	8.482			
00:00:31	1.064	5.735			
00:00:31	1.064	4.162			
00:00:31	1.064	-1.147			
00:00:32	1.064	-1.459			
00:00:32	1.064	-1.321			
00:00:32	1.064	-1.228			
00:00:32	1.064	0.016			
00:00:32	1.063	0.990			
00:00:32	1.063	0.404			
00:00:32	1.063	0.556			
00:00:32	1.063	0.138			
00:00:32	1.063	-2.581			
00:00:32	1.063	-3.644			
00:00:32	1.063	-3.686			
00:00:32	1.063	-3.899			
00:00:32	1.062	-3.906			
00:00:32	1.062	-3.966			
00:00:32	1.062	-3.327			
00:00:32	1.062	-3.053			
00:00:32	1.061	-2.486			
00:00:32	1.061	-2.756			
00:00:32	1.061	-2.826			
00:00:32	1.061	-1.842			
00:00:32	1.061	-0.723			
00:00:32	1.061	1.371			
00:00:32	1.061	3.521			
00:00:32	1.061	5.989			
00:00:32	1.061	8.568			
00:00:32	1.061	11.109			
00:00:32	1.061	17.172			
00:00:32	1.061	19.376			
00:00:32	1.060	14.355			
00:00:32	1.060	17.172			
00:00:32	1.060	25.174			
00:00:32	1.060	25.323			
00:00:32	1.060	23.616			
00:00:32	1.060	22.844			
00:00:32	1.060	20.318			
00:00:32	1.060	18.989			
00:00:32	1.060	16.408			
00:00:32	1.060	12.459			
00:00:32	1.060	8.929			
00:00:32	1.060	6.558			
00:00:32	1.059	4.960			
00:00:32	1.059	-0.752			
00:00:32	1.059	-0.640			
00:00:32	1.059	-0.677			
00:00:32	1.059	-0.064			
00:00:32	1.059	0.374			
00:00:32	1.059	0.687			
00:00:32	1.059	1.148			
00:00:32	1.058	1.323			
00:00:32	1.058	0.314			
00:00:32	1.058	-0.956			
00:00:32	1.058	-2.602			
00:00:32	1.058	-2.730			
00:00:32	1.058	-3.182			
00:00:32	1.058	-3.579			
00:00:32	1.058	-3.842			
00:00:32	1.058	-4.072			
00:00:32	1.058	-3.774			
00:00:32	1.058	-3.564			
00:00:32	1.058	-3.958			
00:00:32	1.057	-4.129			
00:00:32	1.057	-4.063			
00:00:32	1.057	-3.930			
00:00:32	1.057	-3.223			
00:00:32	1.057	-1.847			
00:00:32	1.057	-1.738			
00:00:32	1.057	-1.919			
00:00:32	1.057	-1.950			
00:00:32	1.057	-1.927			
00:00:32	1.057	-1.962			
00:00:32	1.057	-1.903			
00:00:32	1.057	-2.049			
00:00:32	1.056	-2.223			
00:00:32	1.056	-1.966			
00:00:32	1.056	-2.798			
00:00:32	1.056	-0.632			
00:00:32	1.056	15.220			
00:00:32	1.056	18.217			
00:00:32	1.056	18.217			
00:00:32	1.056	25.790			
00:00:32	1.055	26.365			
00:00:32	1.055	26.023			
00:00:32	1.055	25.091			
00:00:32	1.055	24.187			
00:00:32	1.055	23.255			
00:00:32	1.055	22.081			
00:00:32	1.055	20.703			
00:00:32	1.055	19.240			
00:00:32	1.055	17.492			
00:00:32	1.055	16.315			
00:00:32	1.055	15.424			
00:00:32	1.055	13.685			
00:00:32	1.055	12.724			
00:00:32	1.055	11.462			
00:00:32	1.055	9.027			
00:00:32	1.055	2.864			
00:00:32	1.055	-0.522			
00:00:32	1.055	-0.044			
00:00:32	1.055	0.775			
00:00:32	1.055	0.914			
00:00:32	1.055	1.246			
00:00:32	1.055	1.188			
00:00:32	1.055	1.315			
00:00:32	1.055	1.365			
00:00:32	1.054	-0.475			
00:00:32	1.054	-0.108			
00:00:32	1.054	-0.475			
00:00:32	1.054	-3.060			
00:00:32	1.054	-3.341			
00:00:32	1.054	-3.597			
00:00:32	1.054	-3.989			
00:00:32	1.054	-3.555			
00:00:32	1.054	-3.227			
00:00:32	1.054	-3.786			
00:00:32	1.054	-4.022			
00:00:32	1.054	-4.084			
00:00:32	1.054	-4.388			
00:00:32	1.054	-3.344			
00:00:32	1.054	-3.361			
00:00:32	1.054	-3.034			
00:00:32	1.054	-2.643			
00:00:32	1.054	-2.478			
00:00:32	1.054	-2.583			
00:00:32	1.054	-2.723			
00:00:32	1.054	-2.405			
00:00:32	1.054	-2.227			
00:00:32	1.054	-2.059			
00:00:32	1.054	-1.515			
00:00:33	1.054	-1.369			
00:00:33	1.054	-1.435			
00:00:33	1.054	-1.815			
00:00:33	1.054	-2.212			
00:00:33	1.054	-1.678			
00:00:33	1.054	-3.096			
00:00:33	1.054	-3.060			
00:00:33	1.054	2.538			
00:00:33	1.054	5.228			
00:00:33	1.054	8.332			
00:00:33	1.054	11.507			
00:00:33	1.054	15.190			
00:00:33	1.054	18.033			
00:00:33	1.054	20.380			
00:00:33	1.054	22.732			
00:00:33	1.054	23.811			
00:00:33	1.053	25.020			
00:00:33	1.053	25.860			
00:00:33	1.053	26.033			
00:00:33	1.053	26.084			
00:00:33	1.053	25.350			
00:00:33	1.053	24.611			
00:00:33	1.053	23.514			
00:00:33	1.053	19.700			
00:00:33	1.053	18.574			
00:00:33	1.053	13.309			
00:00:33	1.053	12.229			
00:00:33	1.053	11.128			
00:00:33	1.053	9.583			
00:00:33	1.053	8.353			
00:00:33	1.053	6.997			
00:00:33	1.053	5.752			
00:00:33	1.053	4.590			
00:00:33	1.053	3.401			
00:00:33	1.053	2.377			
00:00:33	1.053	1.252			
00:00:33	1.053	0.440			
00:00:33	1.053	0.130			
00:00:33	1.053	-0.478			
00:00:33	1.053	-0.431			
00:00:33	1.053	-0.350			
00:00:33	1.053	0.771			
00:00:33	1.053	1.118			
00:00:33	1.053	1.061			
00:00:33	1.053	0.548			
00:00:33	1.053	0.649			
00:00:33	1.053	0.372			
00:00:33	1.053	0.088			
00:00:33	1.053	0.081			
00:00:33	1.053	-0.692			
00:00:33	1.053	-1.246			
00:00:33	1.053	-2.284			
00:00:33	1.053	-2.833			
00:00:33	1.053	-2.967			
00:00:33	1.053	-3.515			
00:00:33	1.053	-4.234			
00:00:33	1.053	-4.371			
00:00:33	1.053	-4.107			
00:00:33	1.053	-3.884			
00:00:33	1.053	-3.838			
00:00:33	1.052	-3.643			
00:00:33	1.052	-3.916			
00:00:33	1.052	-3.420			
00:00:33	1.052	-3.121			
00:00:33	1.052	-3.055			
00:00:33	1.052	-2.321			
00:00:33	1.052	-2.418			
00:00:33	1.052	-2.333			
00:00:33	1.052	-2.050			
00:00:33	1.052	-1.984			
00:00:33	1.052	-1.845			
00:00:33	1.052	-1.596			
00:00:33	1.052	-1.767			
00:00:33	1.052	-1.845			
00:00:33	1.052	-2.515			
00:00:33	1.052	-2.532			
00:00:33	1.052	-2.148			
00:00:33	1.052	-2.117			
00:00:33	1.052	-2.538			
00:00:33	1.052	-2.867			
00:00:33	1.052	-0.044			
00:00:33	1.052	2.111			
00:00:33	1.052	4.316			
00:00:33	1.052	13.283			
00:00:33	1.051	22.736			
00:00:33	1.051	21.000			
00:00:33	1.051	23.985			
00:00:33	1.051	24.797			
00:00:33	1.051	25.494			
00:00:33	1.051	25.076			
00:00:33	1.051	19.786			
00:00:33	1.051	18.431			
00:00:33	1.051	15.952			
00:00:33	1.051	14.675			
00:00:33	1.051	13.530			
00:00:33	1.051	12.219			
00:00:33	1.051	11.219			
00:00:33	1.051	9.988			
00:00:33	1.051	8.890			
00:00:33	1.051	7.785			
00:00:33	1.051	6.097			
00:00:33	1.051	4.858			
00:00:33	1.051	6.097			
00:00:33	1.051	4.858			
00:00:33	1.051	2.200			
00:00:33	1.051	1.046			
00:00:33	1.051	0.168			
00:00:33	1.051	-0.389			
00:00:33	1.050	-0.374			
00:00:33	1.050	1.795			
00:00:33	1.050	2.094			
00:00:33	1.050	2.109			
00:00:33	1.050	2.114			
00:00:33	1.050	1.734			
00:00:33	1.050	1.683			
00:00:33	1.050	1.212			
00:00:33	1.050	0.519			
00:00:33	1.050	0.546			
00:00:33	1.050	0.163			
00:00:33	1.050	-0.408			
00:00:33	1.050	-0.938			
00:00:33	1.050	-2.333			
00:00:33	1.050	-2.602			
00:00:33	1.050	-3.231			
00:00:33	1.049	-3.344			
00:00:33	1.049	-3.281			
00:00:33	1.049	-2.922			
00:00:33	1.049	-3.253			
00:00:34	1.049	-3.045			
00:00:34	1.049	-2.990			
00:00:34	1.049	-2.172			
00:00:34	1.049	-2.142			
00:00:34	1.049	-1.819			
00:00:34	1.049	-1.491			
00:00:34	1.049	-1.910			
00:00:34	1.049	-2.021			
00:00:34	1.049	-2.026			
00:00:34	1.049	-2.035			
00:00:34	1.049	-1.693			
00:00:34	1.049	-0.952			
00:00:34	1.048	-1.136			
00:00:34	1.048	-1.372			
00:00:34	1.048	-1.742			
00:00:34	1.048	-1.934			
00:00:34	1.048	-1.834			
00:00:34	1.048	-1.953			
00:00:34	1.048	-1.682			
00:00:34	1.048	-0.886			
00:00:34	1.048	-0.331			
00:00:34	1.048	1.197			
00:00:34	1.048	5.325			
00:00:34	1.048	8.288			
00:00:34	1.048	10.961			
00:00:34	1.048	13.821			
00:00:34	1.048	16.804			
00:00:34	1.048	19.053			
00:00:34	1.048	21.163			
00:00:34	1.048	22.920			
00:00:34	1.048	24.266			
00:00:34	1.048	25.297			
00:00:34	1.047	25.380			
00:00:34	1.047	20.484			
00:00:34	1.047	17.336			
00:00:34	1.047	7.851			
00:00:34	1.047	6.843			
00:00:34	1.047	6.110			
00:00:34	1.047	4.622			
00:00:34	1.047	3.434			
00:00:34	1.047	2.099			
00:00:34	1.047	1.105			
00:00:34	1.047	0.364			
00:00:34	1.047	-0.192			
00:00:34	1.046	-0.041			
00:00:34	1.046	0.701			
00:00:34	1.046	1.360			
00:00:34	1.046	1.462			
00:00:34	1.046	1.313			
00:00:34	1.046	1.404			
00:00:34	1.046	1.382			
00:00:34	1.046	1.193			
00:00:34	1.046	-0.542			
00:00:34	1.046	-1.206			
00:00:34	1.046	-1.659			
00:00:34	1.046	-1.897			
00:00:34	1.045	-1.926			
00:00:34	1.045	-1.726			
00:00:34	1.045	-3.406			
00:00:34	1.045	-4.019			
00:00:34	1.045	-3.556			
00:00:34	1.045	-2.770			
00:00:34	1.045	-2.245			
00:00:34	1.045	-2.361			
00:00:34	1.045	-2.505			
00:00:34	1.045	-2.302			
00:00:34	1.045	-1.984			
00:00:34	1.045	-2.060			
00:00:34	1.045	-1.422			
00:00:34	1.045	-2.450			
00:00:34	1.045	-1.581			
00:00:34	1.045	-1.278			
00:00:34	1.045	-0.403			
00:00:34	1.045	1.251			
00:00:34	1.045	2.807			
00:00:34	1.045	5.267			
00:00:34	1.044	8.157			
00:00:34	1.044	10.809			
00:00:34	1.044	14.393			
00:00:34	1.044	17.297			
00:00:34	1.044	20.056			
00:00:34	1.044	22.523			
00:00:34	1.044	24.248			
00:00:34	1.044	25.518			
00:00:34	1.044	26.289			
00:00:34	1.044	23.605			
00:00:34	1.044	22.415			
00:00:34	1.044	20.668			
00:00:34	1.044	19.397			
00:00:34	1.044	18.435			
00:00:34	1.044	14.589			
00:00:34	1.044	8.031			
00:00:34	1.044	6.288			
00:00:34	1.044	4.764			
00:00:34	1.044	3.702			
00:00:34	1.044	0.896			
00:00:34	1.044	0.100			
00:00:34	1.044	-0.511			
00:00:34	1.044	1.262			
00:00:34	1.044	1.167			
00:00:34	1.044	1.072			
00:00:34	1.044	1.137			
00:00:34	1.044	1.560			
00:00:34	1.044	1.504			
00:00:34	1.044	0.940			
00:00:34	1.044	0.676			
00:00:34	1.044	-0.714			
00:00:34	1.044	-0.943			
00:00:34	1.045	-1.159			
00:00:34	1.045	-1.597			
00:00:34	1.045	-1.910			
00:00:34	1.045	-2.489			
00:00:34	1.045	-3.155			
00:00:34	1.045	-3.393			
00:00:34	1.045	-3.302			
00:00:34	1.045	-3.548			
00:00:34	1.045	-3.548			
00:00:34	1.045	-3.246			
00:00:34	1.045	-3.190			
00:00:34	1.045	-3.218			
00:00:34	1.045	-3.368			
00:00:34	1.045	-2.662			
00:00:34	1.045	-3.027			
00:00:34	1.045	-3.204			
00:00:34	1.045	-2.830			
00:00:34	1.045	-2.138			
00:00:34	1.045	-1.353			
00:00:34	1.045	-1.197			
00:00:35	1.046	-1.097			
00:00:35	1.046	-1.004			
00:00:35	1.046	-1.297			
00:00:35	1.046	-1.431			
00:00:35	1.046	-1.912			
00:00:35	1.046	-1.919			
00:00:35	1.046	-1.868			
00:00:35	1.046	-2.109			
00:00:35	1.046	-1.955			
00:00:35	1.046	-1.527			
00:00:35	1.046	-1.020			
00:00:35	1.046	0.441			
00:00:35	1.046	2.384			
00:00:35	1.046	4.247			
00:00:35	1.046	6.664			
00:00:35	1.046	9.451			
00:00:35	1.046	12.361			
00:00:35	1.046	15.079			
00:00:35	1.046	18.092			
00:00:35	1.046	20.634			
00:00:35	1.047	22.329			
00:00:35	1.047	25.152			
00:00:35	1.047	26.526			
00:00:35	1.047	26.149			
00:00:35	1.047	25.721			
00:00:35	1.047	25.230			
00:00:35	1.047	23.205			
00:00:35	1.047	21.817			
00:00:35	1.047	20.643			
00:00:35	1.047	19.349			
00:00:35	1.047	15.293			
00:00:35	1.047	13.936			
00:00:35	1.047	12.871			
00:00:35	1.047	11.456			
00:00:35	1.047	10.188			
00:00:35	1.047	8.958			
00:00:35	1.048	8.156			
00:00:35	1.048	6.896			
00:00:35	1.048	3.889			
00:00:35	1.048	2.458			
00:00:35	1.048	1.534			
00:00:35	1.048	1.160			
00:00:35	1.048	0.698			
00:00:35	1.048	0.788			
00:00:35	1.049	2.117			
00:00:35	1.049	1.068			
00:00:35	1.049	0.548			
00:00:35	1.049	0.353			
00:00:35	1.049	0.353			
00:00:35	1.049	-0.142			
00:00:35	1.049	-0.232			
00:00:35	1.049	-1.007			
00:00:35	1.050	-1.716			
00:00:35	1.050	-2.061			
00:00:35	1.050	-2.987			
00:00:35	1.050	-3.246			
00:00:35	1.051	-3.660			
00:00:35	1.051	-3.440			
00:00:35	1.051	-3.101			
00:00:35	1.051	-3.228			
00:00:35	1.051	-3.057			
00:00:35	1.051	-2.772			
00:00:35	1.051	-2.360			
00:00:35	1.051	-1.169			
00:00:35	1.052	-1.735			
00:00:35	1.052	-1.903			
00:00:35	1.052	-2.326			
00:00:35	1.052	-2.085			
00:00:35	1.053	-2.552			
00:00:35	1.053	5.178			
00:00:35	1.053	7.922			
00:00:35	1.053	10.680			
00:00:35	1.053	13.460			
00:00:35	1.053	23.971			
00:00:35	1.053	25.209			
00:00:35	1.053	25.731			
00:00:35	1.054	25.816			
00:00:35	1.054	24.802			
00:00:35	1.054	22.925			
00:00:35	1.054	21.886			
00:00:35	1.054	11.824			
00:00:35	1.054	11.824			
00:00:35	1.054	11.092			
00:00:35	1.054	9.786			
00:00:35	1.055	8.819			
00:00:35	1.055	7.508			
00:00:35	1.055	6.091			
00:00:35	1.055	4.954			
00:00:35	1.055	3.528			
00:00:35	1.055	0.598			
00:00:35	1.055	0.348			
00:00:35	1.055	0.202			
00:00:35	1.055	0.257			
00:00:35	1.055	0.365			
00:00:35	1.055	1.126			
00:00:35	1.055	1.354			
00:00:35	1.056	1.530			
00:00:35	1.056	1.554			
00:00:35	1.056	1.188			
00:00:35	1.056	-1.506			
00:00:35	1.056	-1.072			
00:00:35	1.056	-2.287			
00:00:35	1.056	-2.587			
00:00:35	1.056	-2.793			
00:00:35	1.056	-2.880			
00:00:35	1.056	-3.379			
00:00:35	1.056	-3.447			
00:00:35	1.056	-3.577			
00:00:35	1.057	-3.177			
00:00:35	1.057	-2.267			
00:00:35	1.057	-1.030			
00:00:35	1.057	-1.075			
00:00:35	1.058	-1.369			
00:00:35	1.058	-1.460			
00:00:35	1.058	-1.373			
00:00:35	1.058	-1.407			
00:00:35	1.058	-1.548			
00:00:35	1.058	-1.556			
00:00:35	1.058	-1.350			
00:00:35	1.058	-1.627			
00:00:35	1.058	-1.832			
00:00:35	1.058	-1.484			
00:00:35	1.058	-1.735			
00:00:35	1.058	-1.232			
00:00:35	1.059	0.937			
00:00:35	1.059	2.691			
00:00:35	1.059	4.833			
00:00:35	1.059	7.266			
00:00:36	1.059	10.383			
00:00:36	1.059	13.531			
00:00:36	1.059	16.554			
00:00:36	1.059	18.927			
00:00:36	1.059	20.780			
00:00:36	1.059	23.455			
00:00:36	1.059	22.757			
00:00:36	1.059	21.584			
00:00:36	1.060	20.116			
00:00:36	1.060	13.523			
00:00:36	1.060	12.295			
00:00:36	1.060	11.252			
00:00:36	1.060	10.083			
00:00:36	1.060	8.572			
00:00:36	1.060	7.354			
00:00:36	1.060	5.876			
00:00:36	1.061	4.368			
00:00:36	1.061	3.383			
00:00:36	1.061	0.900			
00:00:36	1.061	1.146			
00:00:36	1.062	1.092			
00:00:36	1.062	1.844			
00:00:36	1.062	2.430			
00:00:36	1.062	2.536			
00:00:36	1.062	2.447			
00:00:36	1.062	1.910			
00:00:36	1.062	1.741			
00:00:36	1.062	1.165			
00:00:36	1.063	1.085			
00:00:36	1.063	-0.090			
00:00:36	1.063	-0.828			
00:00:36	1.063	-1.369			
00:00:36	1.064	-1.995			
00:00:36	1.064	-1.966			
00:00:36	1.064	-2.142			
00:00:36	1.064	-2.371			
00:00:36	1.064	-2.447			
00:00:36	1.064	-2.501			
00:00:36	1.064	-2.082			
00:00:36	1.064	-2.181			
00:00:36	1.065	-2.178			
00:00:36	1.065	-2.021			
00:00:36	1.065	-1.888			
00:00:36	1.065	-1.437			
00:00:36	1.066	-0.919			
00:00:36	1.066	-0.528			
00:00:36	1.066	-0.362			
00:00:36	1.066	-0.764			
00:00:36	1.066	-1.046			
00:00:36	1.066	-1.016			
00:00:36	1.066	-1.284			
00:00:36	1.066	-1.068			
00:00:36	1.067	-1.179			
00:00:36	1.067	-0.545			
00:00:36	1.067	-0.046			
00:00:36	1.067	1.253			
00:00:36	1.067	-0.046			
00:00:36	1.067	2.909			
00:00:36	1.067	4.996			
00:00:36	1.067	7.486			
00:00:36	1.068	10.082			
00:00:36	1.068	13.040			
00:00:36	1.068	17.905			
00:00:36	1.068	22.658			
00:00:36	1.069	23.356			
00:00:36	1.069	20.550			
00:00:36	1.069	18.632			
00:00:36	1.069	17.473			
00:00:36	1.069	16.541			
00:00:36	1.069	13.018			
00:00:36	1.069	10.573			
00:00:36	1.069	9.261			
00:00:36	1.070	7.995			
00:00:36	1.070	4.823			
00:00:36	1.070	6.896			
00:00:36	1.070	4.823			
00:00:36	1.070	3.522			
00:00:36	1.070	2.465			
00:00:36	1.070	0.522			
00:00:36	1.070	0.608			
00:00:36	1.071	0.938			
00:00:36	1.071	1.315			
00:00:36	1.071	2.432			
00:00:36	1.071	1.688			
00:00:36	1.072	1.418			
00:00:36	1.072	-0.244			
00:00:36	1.072	0.422			
00:00:36	1.072	0.121			
00:00:36	1.072	-0.244			
00:00:36	1.072	-0.545			
00:00:36	1.072	-0.871			
00:00:36	1.072	-1.133			
00:00:36	1.073	-2.214			
00:00:36	1.073	-2.210			
00:00:36	1.073	-2.114			
00:00:36	1.073	-2.283			
00:00:36	1.073	-2.268			
00:00:36	1.073	-2.220			
00:00:36	1.073	-1.776			
00:00:36	1.073	-1.518			
00:00:36	1.073	-0.689			
00:00:36	1.073	-0.753			
00:00:36	1.073	-1.101			
00:00:36	1.073	-1.094			
00:00:36	1.074	-1.061			
00:00:36	1.074	-0.801			
00:00:36	1.074	-0.524			
00:00:36	1.074	-0.603			
00:00:36	1.074	-0.637			
00:00:36	1.074	-0.684			
00:00:36	1.074	-0.548			
00:00:36	1.074	-0.518			
00:00:36	1.075	1.303			
00:00:36	1.075	0.341			
00:00:36	1.075	1.303			
00:00:36	1.075	2.877			
00:00:36	1.075	5.199			
00:00:36	1.075	7.711			
00:00:36	1.075	10.391			
00:00:36	1.075	13.149			
00:00:36	1.075	15.436			
00:00:36	1.075	21.578			
00:00:36	1.075	22.954			
00:00:36	1.075	23.701			
00:00:36	1.076	24.173			
00:00:36	1.076	24.085			
00:00:36	1.076	23.880			
00:00:36	1.076	21.695			
00:00:37	1.076	19.618			
00:00:37	1.076	16.857			
00:00:37	1.076	11.531			
00:00:37	1.076	6.743			
00:00:37	1.077	5.221			
00:00:37	1.077	3.918			
00:00:37	1.077	3.224			
00:00:37	1.077	2.801			
00:00:37	1.077	2.056			
00:00:37	1.077	1.463			
00:00:37	1.077	1.035			
00:00:37	1.077	0.768			
00:00:37	1.077	1.035			
00:00:37	1.077	1.570			
00:00:37	1.077	2.391			
00:00:37	1.077	1.973			
00:00:37	1.078	0.048			
00:00:37	1.078	-1.360			
00:00:37	1.078	-1.360			
00:00:37	1.078	-1.651			
00:00:37	1.079	-1.807			
00:00:37	1.079	-1.685			
00:00:37	1.079	-1.641			
00:00:37	1.079	-1.667			
00:00:37	1.079	-1.760			
00:00:37	1.079	-1.629			
00:00:37	1.079	-1.689			
00:00:37	1.079	-1.627			
00:00:37	1.080	-1.131			
00:00:37	1.080	-0.913			
00:00:37	1.080	-0.791			
00:00:37	1.080	-1.041			
00:00:37	1.080	-0.791			
00:00:37	1.080	-0.764			
00:00:37	1.080	-0.689			
00:00:37	1.080	-0.842			
00:00:37	1.080	-1.005			
00:00:37	1.080	-1.472			
00:00:37	1.080	-1.449			
00:00:37	1.080	-1.420			
00:00:37	1.081	-1.378			
00:00:37	1.081	-1.397			
00:00:37	1.081	6.661			
00:00:37	1.081	9.365			
00:00:37	1.081	12.241			
00:00:37	1.081	19.574			
00:00:37	1.081	22.975			
00:00:37	1.081	24.694			
00:00:37	1.081	25.137			
00:00:37	1.081	24.810			
00:00:37	1.081	24.810			
00:00:37	1.081	19.377			
00:00:37	1.082	17.422			
00:00:37	1.082	11.223			
00:00:37	1.082	8.518			
00:00:37	1.082	0.658			
00:00:37	1.083	0.606			
00:00:37	1.083	0.684			
00:00:37	1.083	0.484			
00:00:37	1.083	0.700			
00:00:37	1.083	1.502			
00:00:37	1.083	1.174			
00:00:37	1.083	0.609			
00:00:37	1.083	0.087			
00:00:37	1.083	-0.676			
00:00:37	1.083	-1.315			
00:00:37	1.083	-1.526			
00:00:37	1.083	-3.218			
00:00:37	1.084	-3.168			
00:00:37	1.084	-2.826			
00:00:37	1.084	-2.813			
00:00:37	1.084	-3.033			
00:00:37	1.084	-2.668			
00:00:37	1.084	-1.858			
00:00:37	1.084	-1.521			
00:00:37	1.084	-0.679			
00:00:37	1.085	-1.321			
00:00:37	1.085	-1.426			
00:00:37	1.085	-1.623			
00:00:37	1.085	-1.554			
00:00:37	1.085	-1.510			
00:00:37	1.085	-1.709			
00:00:37	1.085	11.808			
00:00:37	1.085	16.893			
00:00:37	1.085	17.785			
00:00:37	1.085	16.979			
00:00:37	1.085	15.989			
00:00:37	1.085	15.028			
00:00:37	1.085	14.155			
00:00:37	1.085	13.107			
00:00:37	1.085	10.680			
00:00:37	1.085	9.427			
00:00:37	1.085	8.442			
00:00:37	1.085	7.334			
00:00:37	1.085	5.929			
00:00:37	1.085	4.056			
00:00:37	1.085	4.056			
00:00:37	1.085	2.976			
00:00:37	1.085	2.234			
00:00:37	1.085	1.575			
00:00:37	1.085	1.008			
00:00:37	1.085	0.665			
00:00:37	1.085	0.662			
