RAW Data export file (tab separated)


Client:	,kozawa
Session:	kozawa1
Date:	06-07-2020
Time:	10:26:32
Duration:	126	Seconds.
Output rate:	128	Samples/sec.

hh:mm:ss	128 SPS	32 SPS	
TIME	Sensor-G:BVP	HR (BVP)	Events	Segments	


00:00:00	8.216	70.000			
00:00:00	7.409	70.000			
00:00:00	6.449	70.000			
00:00:00	5.451	70.000			
00:00:00	4.674	70.000			
00:00:00	3.706	70.000			
00:00:00	2.941	70.000			
00:00:00	2.321	70.000			
00:00:00	1.556	70.000			
00:00:00	0.934	70.000			
00:00:00	0.123	70.000			
00:00:00	-0.412	70.000			
00:00:00	-0.686	70.000			
00:00:00	-1.093	70.000			
00:00:00	-1.165	70.000			
00:00:00	-1.296	70.000			
00:00:00	-1.406	70.000			
00:00:00	-1.524	70.000			
00:00:00	-1.661	70.000			
00:00:00	-1.460	70.000			
00:00:00	-1.449	70.000			
00:00:00	-1.270	70.000			
00:00:00	-0.902	70.000			
00:00:00	-0.770	70.000			
00:00:00	-0.471	70.000			
00:00:00	-0.347	70.000			
00:00:00	-0.265	70.000			
00:00:00	0.018	70.000			
00:00:00	0.212	70.000			
00:00:00	0.269	70.000			
00:00:00	0.142	70.000			
00:00:00	-0.233	70.000			
00:00:00	-0.322	70.000			
00:00:00	-0.489	70.000			
00:00:00	-0.408	70.000			
00:00:00	-0.410	70.000			
00:00:00	-0.696	70.000			
00:00:00	-0.837	70.000			
00:00:00	-1.062	70.000			
00:00:00	-1.106	70.000			
00:00:00	-1.194	70.000			
00:00:00	-1.507	70.000			
00:00:00	-1.717	70.000			
00:00:00	-2.076	70.000			
00:00:00	-2.469	70.000			
00:00:00	-2.690	70.000			
00:00:00	-3.049	70.000			
00:00:00	-3.130	70.000			
00:00:00	-3.108	70.000			
00:00:00	-3.148	70.000			
00:00:00	-3.137	70.000			
00:00:00	-3.276	70.000			
00:00:00	-3.209	70.000			
00:00:00	-3.155	70.000			
00:00:00	-3.206	70.000			
00:00:00	-3.141	70.000			
00:00:00	-3.343	70.000			
00:00:00	-3.236	70.000			
00:00:00	-3.049	70.000			
00:00:00	-2.933	70.000			
00:00:00	-2.643	70.000			
00:00:00	-2.675	70.000			
00:00:00	-2.679	70.000			
00:00:00	-2.640	70.000			
00:00:00	-2.675	70.000			
00:00:00	-2.411	70.000			
00:00:00	-2.344	70.000			
00:00:00	-2.366	70.000			
00:00:00	-2.159	70.000			
00:00:00	-2.058	70.000			
00:00:00	-1.842	70.000			
00:00:00	-1.776	70.000			
00:00:00	-1.890	70.000			
00:00:00	-1.883	70.000			
00:00:00	-2.100	70.000			
00:00:00	-2.172	70.000			
00:00:00	-2.173	70.000			
00:00:00	-2.346	70.000			
00:00:00	-2.260	70.000			
00:00:00	-2.306	70.000			
00:00:00	-2.297	70.000			
00:00:00	-1.905	70.000			
00:00:00	-1.715	70.000			
00:00:00	-1.052	70.000			
00:00:00	-0.099	70.000			
00:00:00	1.080	70.000			
00:00:00	2.720	70.000			
00:00:00	4.393	70.000			
00:00:00	6.289	70.000			
00:00:00	8.088	70.000			
00:00:00	9.759	70.000			
00:00:00	11.297	70.000			
00:00:00	12.275	70.000			
00:00:00	13.207	70.000			
00:00:00	13.901	70.000			
00:00:00	14.349	70.000			
00:00:00	14.682	70.000			
00:00:00	14.603	70.000			
00:00:00	14.436	70.000			
00:00:00	14.051	70.000			
00:00:00	13.301	70.000			
00:00:00	12.736	70.000			
00:00:00	11.863	70.000			
00:00:00	10.897	70.000			
00:00:00	10.025	70.000			
00:00:00	9.069	70.000			
00:00:00	8.474	70.000			
00:00:00	7.813	70.000			
00:00:00	7.052	70.000			
00:00:00	6.355	70.000			
00:00:00	5.497	70.000			
00:00:00	4.817	70.000			
00:00:00	4.046	70.000			
00:00:00	3.095	70.000			
00:00:00	2.340	70.000			
00:00:00	1.483	70.000			
00:00:00	0.878	70.000			
00:00:00	0.390	70.000			
00:00:00	-0.270	70.000			
00:00:00	-0.653	70.000			
00:00:00	-0.967	70.000			
00:00:00	-1.195	70.000			
00:00:00	-1.162	70.000			
00:00:00	-1.203	70.000			
00:00:00	-0.908	70.000			
00:00:00	-0.836	70.000			
00:00:00	-0.696	70.000			
00:00:00	-0.476	70.000			
00:00:01	-0.382	70.000			
00:00:01	0.012	70.000			
00:00:01	0.106	70.000			
00:00:01	0.175	70.000			
00:00:01	0.466	70.000			
00:00:01	0.538	70.000			
00:00:01	0.636	70.000			
00:00:01	0.623	70.000			
00:00:01	0.434	70.000			
00:00:01	0.413	70.000			
00:00:01	0.125	70.000			
00:00:01	-0.203	70.000			
00:00:01	-0.553	70.000			
00:00:01	-1.149	70.000			
00:00:01	-1.277	70.000			
00:00:01	-1.284	70.000			
00:00:01	-1.348	70.000			
00:00:01	-1.432	70.000			
00:00:01	-1.769	70.000			
00:00:01	-1.949	70.000			
00:00:01	-2.131	70.000			
00:00:01	-2.254	70.000			
00:00:01	-2.392	70.000			
00:00:01	-2.746	70.000			
00:00:01	-2.791	70.000			
00:00:01	-2.876	70.000			
00:00:01	-2.979	70.000			
00:00:01	-2.820	70.000			
00:00:01	-2.902	70.000			
00:00:01	-2.802	70.000			
00:00:01	-2.609	70.000			
00:00:01	-2.707	70.000			
00:00:01	-2.631	70.000			
00:00:01	-2.706	70.000			
00:00:01	-2.755	70.000			
00:00:01	-2.650	70.000			
00:00:01	-2.650	70.000			
00:00:01	-2.463	70.000			
00:00:01	-2.373	70.000			
00:00:01	-2.248	70.000			
00:00:01	-2.018	70.000			
00:00:01	-2.036	70.000			
00:00:01	-1.765	70.000			
00:00:01	-1.617	70.000			
00:00:01	-1.631	70.000			
00:00:01	-1.631	70.000			
00:00:01	-1.807	70.000			
00:00:01	-1.692	70.000			
00:00:01	-1.767	70.000			
00:00:01	-1.972	70.000			
00:00:01	-1.728	70.000			
00:00:01	-1.777	70.000			
00:00:01	-1.880	70.000			
00:00:01	-1.929	70.000			
00:00:01	-2.087	70.000			
00:00:01	-2.058	70.000			
00:00:01	-2.239	70.000			
00:00:01	-2.132	70.000			
00:00:01	-1.842	70.000			
00:00:01	-1.562	70.000			
00:00:01	-0.923	70.000			
00:00:01	-0.096	70.000			
00:00:01	1.282	70.000			
00:00:01	2.977	70.000			
00:00:01	4.484	70.000			
00:00:01	6.332	70.000			
00:00:01	8.177	70.000			
00:00:01	9.855	70.000			
00:00:01	11.557	70.000			
00:00:01	12.722	70.000			
00:00:01	13.731	70.000			
00:00:01	14.481	70.000			
00:00:01	14.841	70.000			
00:00:01	15.036	70.000			
00:00:01	14.778	70.000			
00:00:01	14.569	70.000			
00:00:01	14.309	70.000			
00:00:01	13.832	70.000			
00:00:01	13.382	70.000			
00:00:01	12.558	70.000			
00:00:01	11.579	70.000			
00:00:01	10.791	70.000			
00:00:01	9.826	70.000			
00:00:01	9.004	70.000			
00:00:01	8.230	67.368			
00:00:01	7.493	67.368			
00:00:01	6.855	67.368			
00:00:01	6.015	67.368			
00:00:01	5.366	67.373			
00:00:01	4.612	67.373			
00:00:01	3.604	67.373			
00:00:01	2.695	67.373			
00:00:01	1.745	67.373			
00:00:01	1.005	67.373			
00:00:01	0.477	67.373			
00:00:01	-0.106	67.373			
00:00:01	-0.466	67.373			
00:00:01	-0.833	67.373			
00:00:01	-0.975	67.373			
00:00:01	-0.991	67.373			
00:00:01	-1.344	67.373			
00:00:01	-1.385	67.373			
00:00:01	-1.345	67.373			
00:00:01	-1.184	67.373			
00:00:01	-0.858	67.373			
00:00:01	-0.764	67.373			
00:00:01	-0.493	67.373			
00:00:01	-0.397	67.373			
00:00:01	-0.242	67.373			
00:00:01	0.095	67.373			
00:00:01	-0.006	67.373			
00:00:01	-0.023	67.373			
00:00:01	-0.070	67.373			
00:00:01	-0.176	67.373			
00:00:01	-0.102	67.373			
00:00:01	-0.292	67.373			
00:00:01	-0.410	67.373			
00:00:01	-0.600	67.373			
00:00:01	-1.009	67.373			
00:00:01	-1.219	67.373			
00:00:01	-1.457	67.373			
00:00:01	-1.593	67.373			
00:00:01	-1.739	67.373			
00:00:01	-1.999	67.373			
00:00:01	-2.019	67.373			
00:00:01	-2.115	67.373			
00:00:01	-2.449	67.373			
00:00:01	-2.546	67.373			
00:00:02	-2.741	67.373			
00:00:02	-2.566	67.373			
00:00:02	-2.639	67.373			
00:00:02	-2.858	67.373			
00:00:02	-2.786	67.373			
00:00:02	-3.021	67.373			
00:00:02	-3.051	67.373			
00:00:02	-3.048	67.373			
00:00:02	-3.192	67.373			
00:00:02	-2.985	67.373			
00:00:02	-2.925	67.373			
00:00:02	-2.837	67.373			
00:00:02	-2.558	67.373			
00:00:02	-2.445	67.373			
00:00:02	-2.183	67.373			
00:00:02	-2.383	67.373			
00:00:02	-2.475	67.373			
00:00:02	-2.289	67.373			
00:00:02	-2.233	67.373			
00:00:02	-1.996	67.373			
00:00:02	-1.910	67.373			
00:00:02	-1.923	67.373			
00:00:02	-1.761	67.373			
00:00:02	-1.896	67.373			
00:00:02	-1.910	67.373			
00:00:02	-1.778	67.373			
00:00:02	-1.847	67.373			
00:00:02	-1.619	67.373			
00:00:02	-1.667	67.373			
00:00:02	-1.629	67.373			
00:00:02	-1.727	67.373			
00:00:02	-2.013	67.373			
00:00:02	-1.825	67.373			
00:00:02	-1.925	67.373			
00:00:02	-2.026	67.373			
00:00:02	-2.031	67.373			
00:00:02	-2.182	67.373			
00:00:02	-1.979	67.373			
00:00:02	-1.560	67.373			
00:00:02	-0.961	67.373			
00:00:02	0.118	67.373			
00:00:02	1.362	67.373			
00:00:02	2.891	67.373			
00:00:02	4.777	67.373			
00:00:02	6.728	67.373			
00:00:02	8.769	67.373			
00:00:02	10.321	67.373			
00:00:02	11.707	67.373			
00:00:02	12.884	67.373			
00:00:02	13.847	67.373			
00:00:02	14.623	67.373			
00:00:02	14.796	67.373			
00:00:02	14.748	67.373			
00:00:02	14.563	67.373			
00:00:02	14.153	67.373			
00:00:02	13.717	67.373			
00:00:02	12.980	67.373			
00:00:02	12.163	67.373			
00:00:02	11.444	67.373			
00:00:02	10.575	67.373			
00:00:02	9.888	72.453			
00:00:02	9.036	72.453			
00:00:02	8.125	72.453			
00:00:02	7.318	72.453			
00:00:02	6.380	72.458			
00:00:02	5.690	72.458			
00:00:02	4.939	72.458			
00:00:02	4.049	72.458			
00:00:02	3.327	72.458			
00:00:02	2.331	72.458			
00:00:02	1.457	72.458			
00:00:02	0.708	72.458			
00:00:02	-0.163	72.458			
00:00:02	-0.709	72.458			
00:00:02	-1.240	72.458			
00:00:02	-1.655	72.458			
00:00:02	-1.724	72.458			
00:00:02	-1.748	72.458			
00:00:02	-1.538	72.458			
00:00:02	-1.446	72.458			
00:00:02	-1.137	72.458			
00:00:02	-0.695	72.458			
00:00:02	-0.368	72.458			
00:00:02	-0.129	72.458			
00:00:02	-0.060	72.458			
00:00:02	0.117	72.458			
00:00:02	0.450	72.458			
00:00:02	0.336	72.458			
00:00:02	0.328	72.458			
00:00:02	0.378	72.458			
00:00:02	0.280	72.458			
00:00:02	0.137	72.458			
00:00:02	-0.236	72.458			
00:00:02	-0.303	72.458			
00:00:02	-0.316	72.458			
00:00:02	-0.596	72.458			
00:00:02	-0.655	72.458			
00:00:02	-1.091	72.458			
00:00:02	-1.415	72.458			
00:00:02	-1.510	72.458			
00:00:02	-1.862	72.458			
00:00:02	-1.825	72.458			
00:00:02	-1.834	72.458			
00:00:02	-2.060	72.458			
00:00:02	-2.170	72.458			
00:00:02	-2.439	72.458			
00:00:02	-2.366	72.458			
00:00:02	-2.415	72.458			
00:00:02	-2.381	72.458			
00:00:02	-2.158	72.458			
00:00:02	-2.168	72.458			
00:00:02	-2.254	72.458			
00:00:02	-2.385	72.458			
00:00:02	-2.532	72.458			
00:00:02	-2.278	72.458			
00:00:02	-2.320	72.458			
00:00:02	-2.217	72.458			
00:00:02	-2.121	72.458			
00:00:02	-2.138	72.458			
00:00:02	-1.977	72.458			
00:00:02	-1.939	72.458			
00:00:02	-1.860	72.458			
00:00:02	-1.795	72.458			
00:00:02	-2.038	72.458			
00:00:02	-1.771	72.458			
00:00:02	-1.517	72.458			
00:00:02	-1.504	72.458			
00:00:02	-1.426	72.458			
00:00:03	-1.485	72.458			
00:00:03	-1.445	72.458			
00:00:03	-1.526	72.458			
00:00:03	-1.744	72.458			
00:00:03	-1.698	72.458			
00:00:03	-1.854	72.458			
00:00:03	-1.896	72.458			
00:00:03	-1.868	72.458			
00:00:03	-2.070	72.458			
00:00:03	-2.003	72.458			
00:00:03	-2.017	72.458			
00:00:03	-2.082	72.458			
00:00:03	-1.984	72.458			
00:00:03	-1.945	72.458			
00:00:03	-1.671	72.458			
00:00:03	-1.198	72.458			
00:00:03	-0.511	72.458			
00:00:03	0.719	72.458			
00:00:03	1.984	72.458			
00:00:03	3.502	72.458			
00:00:03	5.249	72.458			
00:00:03	7.078	72.458			
00:00:03	8.901	72.458			
00:00:03	10.422	72.458			
00:00:03	11.878	72.458			
00:00:03	13.038	72.458			
00:00:03	13.781	72.458			
00:00:03	14.344	72.458			
00:00:03	14.587	72.458			
00:00:03	14.573	72.458			
00:00:03	14.542	72.458			
00:00:03	14.002	72.458			
00:00:03	13.584	72.458			
00:00:03	13.064	72.458			
00:00:03	12.324	72.458			
00:00:03	11.452	72.458			
00:00:03	10.484	72.458			
00:00:03	9.724	72.458			
00:00:03	8.888	72.458			
00:00:03	8.049	72.458			
00:00:03	7.334	73.143			
00:00:03	6.396	73.143			
00:00:03	5.508	73.143			
00:00:03	4.573	73.143			
00:00:03	3.651	73.148			
00:00:03	2.914	73.148			
00:00:03	2.053	73.148			
00:00:03	1.298	73.148			
00:00:03	0.646	73.148			
00:00:03	-0.001	73.148			
00:00:03	-0.360	73.148			
00:00:03	-0.729	73.148			
00:00:03	-1.037	73.148			
00:00:03	-1.238	73.148			
00:00:03	-1.586	73.148			
00:00:03	-1.513	73.148			
00:00:03	-1.518	73.148			
00:00:03	-1.417	73.148			
00:00:03	-1.128	73.148			
00:00:03	-1.015	73.148			
00:00:03	-0.638	73.148			
00:00:03	-0.434	73.148			
00:00:03	-0.372	73.148			
00:00:03	-0.167	73.148			
00:00:03	-0.222	73.148			
00:00:03	-0.197	73.148			
00:00:03	-0.169	73.148			
00:00:03	-0.451	73.148			
00:00:03	-0.472	73.148			
00:00:03	-0.682	73.148			
00:00:03	-0.772	73.148			
00:00:03	-0.776	73.148			
00:00:03	-1.025	73.148			
00:00:03	-1.161	73.148			
00:00:03	-1.437	73.148			
00:00:03	-1.572	73.148			
00:00:03	-1.583	73.148			
00:00:03	-1.887	73.148			
00:00:03	-2.020	73.148			
00:00:03	-2.173	73.148			
00:00:03	-2.272	73.148			
00:00:03	-2.298	73.148			
00:00:03	-2.498	73.148			
00:00:03	-2.588	73.148			
00:00:03	-2.705	73.148			
00:00:03	-2.985	73.148			
00:00:03	-2.868	73.148			
00:00:03	-2.883	73.148			
00:00:03	-2.817	73.148			
00:00:03	-2.894	73.148			
00:00:03	-3.053	73.148			
00:00:03	-2.878	73.148			
00:00:03	-2.861	73.148			
00:00:03	-2.829	73.148			
00:00:03	-2.767	73.148			
00:00:03	-2.795	73.148			
00:00:03	-2.386	73.148			
00:00:03	-2.295	73.148			
00:00:03	-2.309	73.148			
00:00:03	-2.202	73.148			
00:00:03	-2.156	73.148			
00:00:03	-1.926	73.148			
00:00:03	-1.730	73.148			
00:00:03	-1.591	73.148			
00:00:03	-1.312	73.148			
00:00:03	-1.296	73.148			
00:00:03	-1.350	73.148			
00:00:03	-1.454	73.148			
00:00:03	-1.636	73.148			
00:00:03	-1.502	73.148			
00:00:03	-1.486	73.148			
00:00:03	-1.385	73.148			
00:00:03	-1.424	73.148			
00:00:03	-1.618	73.148			
00:00:03	-1.630	73.148			
00:00:03	-1.698	73.148			
00:00:03	-1.901	73.148			
00:00:03	-1.897	73.148			
00:00:03	-2.046	73.148			
00:00:03	-1.823	73.148			
00:00:03	-1.767	73.148			
00:00:03	-1.709	73.148			
00:00:03	-1.004	73.148			
00:00:03	-0.194	73.148			
00:00:03	1.052	73.148			
00:00:03	2.725	73.148			
00:00:03	4.450	73.148			
00:00:03	6.520	73.148			
00:00:04	8.404	73.148			
00:00:04	10.240	73.148			
00:00:04	11.923	73.148			
00:00:04	13.234	73.148			
00:00:04	14.405	73.148			
00:00:04	15.154	73.148			
00:00:04	15.617	73.148			
00:00:04	15.804	73.148			
00:00:04	15.523	73.148			
00:00:04	15.224	73.148			
00:00:04	14.742	73.148			
00:00:04	14.123	73.148			
00:00:04	13.373	73.148			
00:00:04	12.466	73.148			
00:00:04	11.775	73.148			
00:00:04	10.900	73.148			
00:00:04	9.860	72.453			
00:00:04	9.011	72.453			
00:00:04	8.047	72.453			
00:00:04	7.347	72.453			
00:00:04	6.582	72.458			
00:00:04	5.800	72.458			
00:00:04	5.226	72.458			
00:00:04	4.322	72.458			
00:00:04	3.427	72.458			
00:00:04	2.597	72.458			
00:00:04	1.549	72.458			
00:00:04	0.844	72.458			
00:00:04	0.084	72.458			
00:00:04	-0.492	72.458			
00:00:04	-0.897	72.458			
00:00:04	-1.501	72.458			
00:00:04	-1.548	72.458			
00:00:04	-1.551	72.458			
00:00:04	-1.534	72.458			
00:00:04	-1.296	72.458			
00:00:04	-1.283	72.458			
00:00:04	-1.027	72.458			
00:00:04	-0.872	72.458			
00:00:04	-0.784	72.458			
00:00:04	-0.466	72.458			
00:00:04	-0.431	72.458			
00:00:04	-0.322	72.458			
00:00:04	-0.102	72.458			
00:00:04	-0.210	72.458			
00:00:04	-0.291	72.458			
00:00:04	-0.559	72.458			
00:00:04	-0.487	72.458			
00:00:04	-0.399	72.458			
00:00:04	-0.595	72.458			
00:00:04	-0.710	72.458			
00:00:04	-1.056	72.458			
00:00:04	-1.502	72.458			
00:00:04	-1.568	72.458			
00:00:04	-1.896	72.458			
00:00:04	-2.054	72.458			
00:00:04	-2.252	72.458			
00:00:04	-2.453	72.458			
00:00:04	-2.421	72.458			
00:00:04	-2.646	72.458			
00:00:04	-2.735	72.458			
00:00:04	-2.900	72.458			
00:00:04	-3.103	72.458			
00:00:04	-3.055	72.458			
00:00:04	-3.311	72.458			
00:00:04	-3.324	72.458			
00:00:04	-3.308	72.458			
00:00:04	-3.486	72.458			
00:00:04	-3.443	72.458			
00:00:04	-3.365	72.458			
00:00:04	-3.266	72.458			
00:00:04	-3.103	72.458			
00:00:04	-3.104	72.458			
00:00:04	-3.015	72.458			
00:00:04	-2.862	72.458			
00:00:04	-2.619	72.458			
00:00:04	-2.335	72.458			
00:00:04	-2.455	72.458			
00:00:04	-2.342	72.458			
00:00:04	-2.149	72.458			
00:00:04	-2.075	72.458			
00:00:04	-1.827	72.458			
00:00:04	-2.007	72.458			
00:00:04	-1.907	72.458			
00:00:04	-1.706	72.458			
00:00:04	-1.740	72.458			
00:00:04	-1.601	72.458			
00:00:04	-1.570	72.458			
00:00:04	-1.558	72.458			
00:00:04	-1.684	72.458			
00:00:04	-1.835	72.458			
00:00:04	-1.846	72.458			
00:00:04	-1.935	72.458			
00:00:04	-1.986	72.458			
00:00:04	-2.007	72.458			
00:00:04	-2.039	72.458			
00:00:04	-1.937	72.458			
00:00:04	-1.972	72.458			
00:00:04	-2.091	72.458			
00:00:04	-2.027	72.458			
00:00:04	-1.996	72.458			
00:00:04	-1.560	72.458			
00:00:04	-1.011	72.458			
00:00:04	-0.204	72.458			
00:00:04	0.986	72.458			
00:00:04	2.240	72.458			
00:00:04	3.883	72.458			
00:00:04	5.766	72.458			
00:00:04	7.670	72.458			
00:00:04	9.751	72.458			
00:00:04	11.299	72.458			
00:00:04	12.669	72.458			
00:00:04	13.986	72.458			
00:00:04	14.858	72.458			
00:00:04	15.454	72.458			
00:00:04	15.631	72.458			
00:00:04	15.521	72.458			
00:00:04	15.439	72.458			
00:00:04	14.981	72.458			
00:00:04	14.486	72.458			
00:00:04	13.651	72.458			
00:00:04	12.739	72.458			
00:00:04	12.038	72.458			
00:00:04	11.006	72.458			
00:00:04	10.000	70.459			
00:00:04	9.028	70.459			
00:00:04	8.001	70.459			
00:00:04	7.397	70.459			
00:00:05	6.612	70.464			
00:00:05	5.904	70.464			
00:00:05	5.349	70.464			
00:00:05	4.587	70.464			
00:00:05	3.763	70.464			
00:00:05	2.748	70.464			
00:00:05	1.833	70.464			
00:00:05	1.115	70.464			
00:00:05	0.097	70.464			
00:00:05	-0.554	70.464			
00:00:05	-1.050	70.464			
00:00:05	-1.435	70.464			
00:00:05	-1.525	70.464			
00:00:05	-1.695	70.464			
00:00:05	-1.664	70.464			
00:00:05	-1.601	70.464			
00:00:05	-1.456	70.464			
00:00:05	-1.185	70.464			
00:00:05	-0.965	70.464			
00:00:05	-0.713	70.464			
00:00:05	-0.558	70.464			
00:00:05	-0.561	70.464			
00:00:05	-0.428	70.464			
00:00:05	-0.371	70.464			
00:00:05	-0.320	70.464			
00:00:05	-0.337	70.464			
00:00:05	-0.337	70.464			
00:00:05	-0.452	70.464			
00:00:05	-0.785	70.464			
00:00:05	-1.166	70.464			
00:00:05	-1.310	70.464			
00:00:05	-1.470	70.464			
00:00:05	-1.398	70.464			
00:00:05	-1.524	70.464			
00:00:05	-1.757	70.464			
00:00:05	-1.770	70.464			
00:00:05	-1.940	70.464			
00:00:05	-2.111	70.464			
00:00:05	-2.315	70.464			
00:00:05	-2.463	70.464			
00:00:05	-2.514	70.464			
00:00:05	-2.681	70.464			
00:00:05	-2.874	70.464			
00:00:05	-2.956	70.464			
00:00:05	-3.020	70.464			
00:00:05	-2.852	70.464			
00:00:05	-2.957	70.464			
00:00:05	-3.027	70.464			
00:00:05	-2.884	70.464			
00:00:05	-2.957	70.464			
00:00:05	-2.748	70.464			
00:00:05	-2.740	70.464			
00:00:05	-2.880	70.464			
00:00:05	-2.671	70.464			
00:00:05	-2.669	70.464			
00:00:05	-2.658	70.464			
00:00:05	-2.631	70.464			
00:00:05	-2.623	70.464			
00:00:05	-2.457	70.464			
00:00:05	-2.495	70.464			
00:00:05	-2.146	70.464			
00:00:05	-1.834	70.464			
00:00:05	-1.719	70.464			
00:00:05	-1.455	70.464			
00:00:05	-1.490	70.464			
00:00:05	-1.409	70.464			
00:00:05	-1.317	70.464			
00:00:05	-1.533	70.464			
00:00:05	-1.606	70.464			
00:00:05	-1.695	70.464			
00:00:05	-1.771	70.464			
00:00:05	-1.685	70.464			
00:00:05	-1.782	70.464			
00:00:05	-1.667	70.464			
00:00:05	-1.684	70.464			
00:00:05	-1.858	70.464			
00:00:05	-1.904	70.464			
00:00:05	-2.087	70.464			
00:00:05	-2.175	70.464			
00:00:05	-2.337	70.464			
00:00:05	-2.629	70.464			
00:00:05	-2.430	70.464			
00:00:05	-2.125	70.464			
00:00:05	-1.670	70.464			
00:00:05	-0.837	70.464			
00:00:05	0.106	70.464			
00:00:05	1.724	70.464			
00:00:05	3.350	70.464			
00:00:05	4.924	70.464			
00:00:05	6.788	70.464			
00:00:05	8.651	70.464			
00:00:05	10.615	70.464			
00:00:05	12.219	70.464			
00:00:05	13.346	70.464			
00:00:05	14.344	70.464			
00:00:05	14.867	70.464			
00:00:05	15.235	70.464			
00:00:05	15.145	70.464			
00:00:05	14.798	70.464			
00:00:05	14.514	70.464			
00:00:05	13.852	70.464			
00:00:05	13.175	70.464			
00:00:05	12.273	70.464			
00:00:05	11.281	70.464			
00:00:05	10.539	70.464			
00:00:05	9.511	70.464			
00:00:05	8.693	70.464			
00:00:05	7.928	70.464			
00:00:05	6.908	70.459			
00:00:05	6.032	70.459			
00:00:05	5.151	70.459			
00:00:05	4.210	70.459			
00:00:05	3.322	70.464			
00:00:05	2.178	70.464			
00:00:05	1.326	70.464			
00:00:05	0.521	70.464			
00:00:05	-0.364	70.464			
00:00:05	-1.009	70.464			
00:00:05	-1.630	70.464			
00:00:05	-2.006	70.464			
00:00:05	-2.202	70.464			
00:00:05	-2.268	70.464			
00:00:05	-2.058	70.464			
00:00:05	-2.118	70.464			
00:00:05	-1.875	70.464			
00:00:05	-1.490	70.464			
00:00:05	-1.321	70.464			
00:00:05	-0.877	70.464			
00:00:06	-0.651	70.464			
00:00:06	-0.350	70.464			
00:00:06	-0.145	70.464			
00:00:06	-0.180	70.464			
00:00:06	-0.069	70.464			
00:00:06	0.003	70.464			
00:00:06	-0.026	70.464			
00:00:06	-0.040	70.464			
00:00:06	-0.357	70.464			
00:00:06	-0.424	70.464			
00:00:06	-0.659	70.464			
00:00:06	-1.047	70.464			
00:00:06	-1.166	70.464			
00:00:06	-1.371	70.464			
00:00:06	-1.510	70.464			
00:00:06	-1.613	70.464			
00:00:06	-1.918	70.464			
00:00:06	-1.931	70.464			
00:00:06	-2.261	70.464			
00:00:06	-2.393	70.464			
00:00:06	-2.461	70.464			
00:00:06	-2.661	70.464			
00:00:06	-2.681	70.464			
00:00:06	-2.766	70.464			
00:00:06	-2.954	70.464			
00:00:06	-3.030	70.464			
00:00:06	-3.235	70.464			
00:00:06	-3.087	70.464			
00:00:06	-2.990	70.464			
00:00:06	-2.998	70.464			
00:00:06	-2.867	70.464			
00:00:06	-2.939	70.464			
00:00:06	-2.816	70.464			
00:00:06	-2.669	70.464			
00:00:06	-2.646	70.464			
00:00:06	-2.556	70.464			
00:00:06	-2.681	70.464			
00:00:06	-2.527	70.464			
00:00:06	-2.308	70.464			
00:00:06	-2.461	70.464			
00:00:06	-2.285	70.464			
00:00:06	-2.307	70.464			
00:00:06	-2.174	70.464			
00:00:06	-1.830	70.464			
00:00:06	-1.855	70.464			
00:00:06	-1.611	70.464			
00:00:06	-1.565	70.464			
00:00:06	-1.615	70.464			
00:00:06	-1.440	70.464			
00:00:06	-1.563	70.464			
00:00:06	-1.456	70.464			
00:00:06	-1.511	70.464			
00:00:06	-1.696	70.464			
00:00:06	-1.809	70.464			
00:00:06	-2.046	70.464			
00:00:06	-1.987	70.464			
00:00:06	-1.976	70.464			
00:00:06	-2.194	70.464			
00:00:06	-2.219	70.464			
00:00:06	-2.336	70.464			
00:00:06	-2.276	70.464			
00:00:06	-2.069	70.464			
00:00:06	-1.738	70.464			
00:00:06	-0.972	70.464			
00:00:06	0.065	70.464			
00:00:06	1.565	70.464			
00:00:06	3.470	70.464			
00:00:06	5.223	70.464			
00:00:06	7.240	70.464			
00:00:06	9.168	70.464			
00:00:06	10.788	70.464			
00:00:06	12.393	70.464			
00:00:06	13.398	70.464			
00:00:06	14.329	70.464			
00:00:06	14.896	70.464			
00:00:06	15.023	70.464			
00:00:06	15.093	70.464			
00:00:06	14.803	70.464			
00:00:06	14.277	70.464			
00:00:06	13.711	70.464			
00:00:06	12.981	70.464			
00:00:06	12.399	70.464			
00:00:06	11.448	70.464			
00:00:06	10.472	70.464			
00:00:06	9.548	71.776			
00:00:06	8.587	71.776			
00:00:06	7.970	71.776			
00:00:06	7.162	71.776			
00:00:06	6.322	71.781			
00:00:06	5.622	71.781			
00:00:06	4.710	71.781			
00:00:06	3.827	71.781			
00:00:06	2.892	71.781			
00:00:06	1.964	71.781			
00:00:06	1.261	71.781			
00:00:06	0.362	71.781			
00:00:06	-0.362	71.781			
00:00:06	-0.991	71.781			
00:00:06	-1.628	71.781			
00:00:06	-1.840	71.781			
00:00:06	-2.036	71.781			
00:00:06	-2.154	71.781			
00:00:06	-2.058	71.781			
00:00:06	-2.144	71.781			
00:00:06	-1.925	71.781			
00:00:06	-1.859	71.781			
00:00:06	-1.693	71.781			
00:00:06	-1.225	71.781			
00:00:06	-0.926	71.781			
00:00:06	-0.673	71.781			
00:00:06	-0.575	71.781			
00:00:06	-0.581	71.781			
00:00:06	-0.572	71.781			
00:00:06	-0.641	71.781			
00:00:06	-0.489	71.781			
00:00:06	-0.447	71.781			
00:00:06	-0.747	71.781			
00:00:06	-0.813	71.781			
00:00:06	-0.937	71.781			
00:00:06	-1.005	71.781			
00:00:06	-1.183	71.781			
00:00:06	-1.458	71.781			
00:00:06	-1.662	71.781			
00:00:06	-1.997	71.781			
00:00:06	-2.264	71.781			
00:00:06	-2.432	71.781			
00:00:06	-2.715	71.781			
00:00:06	-2.846	71.781			
00:00:07	-3.011	71.781			
00:00:07	-3.045	71.781			
00:00:07	-2.993	71.781			
00:00:07	-3.157	71.781			
00:00:07	-3.132	71.781			
00:00:07	-3.140	71.781			
00:00:07	-3.180	71.781			
00:00:07	-3.075	71.781			
00:00:07	-3.147	71.781			
00:00:07	-3.013	71.781			
00:00:07	-2.889	71.781			
00:00:07	-3.025	71.781			
00:00:07	-3.048	71.781			
00:00:07	-3.022	71.781			
00:00:07	-2.990	71.781			
00:00:07	-3.030	71.781			
00:00:07	-3.045	71.781			
00:00:07	-2.730	71.781			
00:00:07	-2.700	71.781			
00:00:07	-2.564	71.781			
00:00:07	-2.222	71.781			
00:00:07	-2.115	71.781			
00:00:07	-1.795	71.781			
00:00:07	-1.503	71.781			
00:00:07	-1.294	71.781			
00:00:07	-1.085	71.781			
00:00:07	-1.172	71.781			
00:00:07	-1.143	71.781			
00:00:07	-1.118	71.781			
00:00:07	-1.246	71.781			
00:00:07	-1.055	71.781			
00:00:07	-1.299	71.781			
00:00:07	-1.527	71.781			
00:00:07	-1.806	71.781			
00:00:07	-2.271	71.781			
00:00:07	-2.376	71.781			
00:00:07	-2.666	71.781			
00:00:07	-2.789	71.781			
00:00:07	-2.763	71.781			
00:00:07	-2.802	71.781			
00:00:07	-2.471	71.781			
00:00:07	-2.249	71.781			
00:00:07	-1.985	71.781			
00:00:07	-1.446	71.781			
00:00:07	-0.787	71.781			
00:00:07	0.377	71.781			
00:00:07	1.897	71.781			
00:00:07	3.865	71.781			
00:00:07	6.020	71.781			
00:00:07	7.903	71.781			
00:00:07	9.802	71.781			
00:00:07	11.593	71.781			
00:00:07	13.211	71.781			
00:00:07	14.544	71.781			
00:00:07	15.303	71.781			
00:00:07	15.874	71.781			
00:00:07	16.301	71.781			
00:00:07	16.222	71.781			
00:00:07	15.959	71.781			
00:00:07	15.359	71.781			
00:00:07	14.625	71.781			
00:00:07	13.950	71.781			
00:00:07	12.892	71.781			
00:00:07	12.013	71.781			
00:00:07	11.015	71.111			
00:00:07	10.053	71.111			
00:00:07	9.148	71.111			
00:00:07	8.036	71.111			
00:00:07	7.187	71.116			
00:00:07	6.426	71.116			
00:00:07	5.629	71.116			
00:00:07	4.827	71.116			
00:00:07	3.809	71.116			
00:00:07	2.895	71.116			
00:00:07	1.973	71.116			
00:00:07	0.948	71.116			
00:00:07	0.308	71.116			
00:00:07	-0.492	71.116			
00:00:07	-1.099	71.116			
00:00:07	-1.465	71.116			
00:00:07	-1.783	71.116			
00:00:07	-1.976	71.116			
00:00:07	-2.214	71.116			
00:00:07	-2.353	71.116			
00:00:07	-2.100	71.116			
00:00:07	-1.893	71.116			
00:00:07	-1.569	71.116			
00:00:07	-1.193	71.116			
00:00:07	-0.905	71.116			
00:00:07	-0.535	71.116			
00:00:07	-0.282	71.116			
00:00:07	0.045	71.116			
00:00:07	0.190	71.116			
00:00:07	-0.011	71.116			
00:00:07	-0.149	71.116			
00:00:07	-0.331	71.116			
00:00:07	-0.299	71.116			
00:00:07	-0.289	71.116			
00:00:07	-0.487	71.116			
00:00:07	-0.600	71.116			
00:00:07	-1.060	71.116			
00:00:07	-1.356	71.116			
00:00:07	-1.569	71.116			
00:00:07	-2.026	71.116			
00:00:07	-2.235	71.116			
00:00:07	-2.482	71.116			
00:00:07	-2.718	71.116			
00:00:07	-2.847	71.116			
00:00:07	-2.906	71.116			
00:00:07	-2.915	71.116			
00:00:07	-2.949	71.116			
00:00:07	-3.135	71.116			
00:00:07	-3.013	71.116			
00:00:07	-3.130	71.116			
00:00:07	-3.172	71.116			
00:00:07	-3.293	71.116			
00:00:07	-3.363	71.116			
00:00:07	-3.224	71.116			
00:00:07	-3.270	71.116			
00:00:07	-3.102	71.116			
00:00:07	-3.040	71.116			
00:00:07	-3.187	71.116			
00:00:07	-3.013	71.116			
00:00:07	-2.909	71.116			
00:00:07	-2.915	71.116			
00:00:07	-2.655	71.116			
00:00:07	-2.691	71.116			
00:00:07	-2.441	71.116			
00:00:08	-2.221	71.116			
00:00:08	-2.111	71.116			
00:00:08	-1.895	71.116			
00:00:08	-1.897	71.116			
00:00:08	-1.949	71.116			
00:00:08	-1.941	71.116			
00:00:08	-2.039	71.116			
00:00:08	-1.789	71.116			
00:00:08	-1.779	71.116			
00:00:08	-1.741	71.116			
00:00:08	-1.475	71.116			
00:00:08	-1.351	71.116			
00:00:08	-1.309	71.116			
00:00:08	-1.582	71.116			
00:00:08	-1.721	71.116			
00:00:08	-1.745	71.116			
00:00:08	-1.983	71.116			
00:00:08	-1.864	71.116			
00:00:08	-1.849	71.116			
00:00:08	-1.948	71.116			
00:00:08	-1.887	71.116			
00:00:08	-2.138	71.116			
00:00:08	-2.129	71.116			
00:00:08	-2.043	71.116			
00:00:08	-1.866	71.116			
00:00:08	-1.418	71.116			
00:00:08	-0.877	71.116			
00:00:08	0.208	71.116			
00:00:08	1.600	71.116			
00:00:08	3.305	71.116			
00:00:08	5.424	71.116			
00:00:08	7.402	71.116			
00:00:08	9.480	71.116			
00:00:08	11.530	71.116			
00:00:08	12.935	71.116			
00:00:08	14.415	71.116			
00:00:08	15.293	71.116			
00:00:08	15.899	71.116			
00:00:08	16.315	71.116			
00:00:08	16.200	71.116			
00:00:08	16.089	71.116			
00:00:08	15.632	71.116			
00:00:08	14.957	71.116			
00:00:08	14.434	71.116			
00:00:08	13.525	71.116			
00:00:08	12.686	71.116			
00:00:08	11.710	71.116			
00:00:08	10.453	71.116			
00:00:08	9.372	69.189			
00:00:08	8.314	69.189			
00:00:08	7.539	69.189			
00:00:08	6.759	69.189			
00:00:08	5.831	69.194			
00:00:08	5.040	69.194			
00:00:08	4.040	69.194			
00:00:08	2.989	69.194			
00:00:08	2.006	69.194			
00:00:08	1.005	69.194			
00:00:08	0.372	69.194			
00:00:08	-0.345	69.194			
00:00:08	-1.016	69.194			
00:00:08	-1.451	69.194			
00:00:08	-1.911	69.194			
00:00:08	-2.095	69.194			
00:00:08	-2.249	69.194			
00:00:08	-2.177	69.194			
00:00:08	-1.953	69.194			
00:00:08	-1.987	69.194			
00:00:08	-1.734	69.194			
00:00:08	-1.331	69.194			
00:00:08	-0.983	69.194			
00:00:08	-0.493	69.194			
00:00:08	-0.431	69.194			
00:00:08	-0.288	69.194			
00:00:08	-0.237	69.194			
00:00:08	-0.185	69.194			
00:00:08	-0.062	69.194			
00:00:08	-0.185	69.194			
00:00:08	-0.337	69.194			
00:00:08	-0.563	69.194			
00:00:08	-0.955	69.194			
00:00:08	-0.950	69.194			
00:00:08	-1.218	69.194			
00:00:08	-1.591	69.194			
00:00:08	-1.714	69.194			
00:00:08	-1.906	69.194			
00:00:08	-2.016	69.194			
00:00:08	-2.224	69.194			
00:00:08	-2.584	69.194			
00:00:08	-2.599	69.194			
00:00:08	-2.766	69.194			
00:00:08	-2.955	69.194			
00:00:08	-3.225	69.194			
00:00:08	-3.488	69.194			
00:00:08	-3.447	69.194			
00:00:08	-3.498	69.194			
00:00:08	-3.477	69.194			
00:00:08	-3.437	69.194			
00:00:08	-3.546	69.194			
00:00:08	-3.373	69.194			
00:00:08	-3.348	69.194			
00:00:08	-3.227	69.194			
00:00:08	-2.966	69.194			
00:00:08	-2.967	69.194			
00:00:08	-2.820	69.194			
00:00:08	-2.667	69.194			
00:00:08	-2.609	69.194			
00:00:08	-2.452	69.194			
00:00:08	-2.423	69.194			
00:00:08	-2.266	69.194			
00:00:08	-2.141	69.194			
00:00:08	-2.190	69.194			
00:00:08	-2.107	69.194			
00:00:08	-2.139	69.194			
00:00:08	-2.012	69.194			
00:00:08	-1.854	69.194			
00:00:08	-1.891	69.194			
00:00:08	-1.627	69.194			
00:00:08	-1.424	69.194			
00:00:08	-1.348	69.194			
00:00:08	-1.326	69.194			
00:00:08	-1.675	69.194			
00:00:08	-1.778	69.194			
00:00:08	-1.892	69.194			
00:00:08	-2.009	69.194			
00:00:08	-2.011	69.194			
00:00:08	-2.243	69.194			
00:00:08	-2.126	69.194			
00:00:09	-1.997	69.194			
00:00:09	-1.995	69.194			
00:00:09	-1.860	69.194			
00:00:09	-1.895	69.194			
00:00:09	-1.943	69.194			
00:00:09	-1.953	69.194			
00:00:09	-1.844	69.194			
00:00:09	-1.150	69.194			
00:00:09	-0.395	69.194			
00:00:09	0.758	69.194			
00:00:09	2.392	69.194			
00:00:09	4.073	69.194			
00:00:09	6.179	69.194			
00:00:09	8.109	69.194			
00:00:09	9.880	69.194			
00:00:09	11.683	69.194			
00:00:09	13.155	69.194			
00:00:09	14.431	69.194			
00:00:09	15.216	69.194			
00:00:09	15.542	69.194			
00:00:09	15.751	69.194			
00:00:09	15.552	69.194			
00:00:09	15.257	69.194			
00:00:09	14.598	69.194			
00:00:09	13.738	69.194			
00:00:09	13.062	69.194			
00:00:09	12.245	69.194			
00:00:09	11.211	69.194			
00:00:09	10.164	70.459			
00:00:09	9.214	70.459			
00:00:09	8.469	70.459			
00:00:09	7.420	70.459			
00:00:09	6.473	70.464			
00:00:09	5.737	70.464			
00:00:09	4.599	70.464			
00:00:09	3.709	70.464			
00:00:09	2.628	70.464			
00:00:09	1.593	70.464			
00:00:09	0.800	70.464			
00:00:09	0.024	70.464			
00:00:09	-0.558	70.464			
00:00:09	-1.102	70.464			
00:00:09	-1.524	70.464			
00:00:09	-1.706	70.464			
00:00:09	-1.979	70.464			
00:00:09	-1.963	70.464			
00:00:09	-1.773	70.464			
00:00:09	-1.599	70.464			
00:00:09	-1.178	70.464			
00:00:09	-1.014	70.464			
00:00:09	-0.880	70.464			
00:00:09	-0.673	70.464			
00:00:09	-0.544	70.464			
00:00:09	-0.224	70.464			
00:00:09	-0.138	70.464			
00:00:09	-0.163	70.464			
00:00:09	0.008	70.464			
00:00:09	-0.043	70.464			
00:00:09	0.112	70.464			
00:00:09	-0.020	70.464			
00:00:09	-0.239	70.464			
00:00:09	-0.204	70.464			
00:00:09	-0.401	70.464			
00:00:09	-0.537	70.464			
00:00:09	-0.659	70.464			
00:00:09	-0.887	70.464			
00:00:09	-0.834	70.464			
00:00:09	-1.110	70.464			
00:00:09	-1.592	70.464			
00:00:09	-1.895	70.464			
00:00:09	-2.194	70.464			
00:00:09	-2.306	70.464			
00:00:09	-2.550	70.464			
00:00:09	-2.708	70.464			
00:00:09	-2.648	70.464			
00:00:09	-2.929	70.464			
00:00:09	-2.896	70.464			
00:00:09	-2.816	70.464			
00:00:09	-2.862	70.464			
00:00:09	-2.910	70.464			
00:00:09	-2.990	70.464			
00:00:09	-2.901	70.464			
00:00:09	-2.803	70.464			
00:00:09	-2.925	70.464			
00:00:09	-2.929	70.464			
00:00:09	-3.056	70.464			
00:00:09	-3.109	70.464			
00:00:09	-3.072	70.464			
00:00:09	-3.081	70.464			
00:00:09	-3.094	70.464			
00:00:09	-3.131	70.464			
00:00:09	-3.071	70.464			
00:00:09	-2.810	70.464			
00:00:09	-2.664	70.464			
00:00:09	-2.444	70.464			
00:00:09	-2.316	70.464			
00:00:09	-2.259	70.464			
00:00:09	-2.185	70.464			
00:00:09	-2.219	70.464			
00:00:09	-2.205	70.464			
00:00:09	-2.167	70.464			
00:00:09	-2.256	70.464			
00:00:09	-2.213	70.464			
00:00:09	-2.324	70.464			
00:00:09	-2.401	70.464			
00:00:09	-2.364	70.464			
00:00:09	-2.444	70.464			
00:00:09	-2.388	70.464			
00:00:09	-2.420	70.464			
00:00:09	-2.302	70.464			
00:00:09	-2.137	70.464			
00:00:09	-2.264	70.464			
00:00:09	-2.182	70.464			
00:00:09	-1.876	70.464			
00:00:09	-1.431	70.464			
00:00:09	-0.767	70.464			
00:00:09	0.211	70.464			
00:00:09	1.812	70.464			
00:00:09	3.675	70.464			
00:00:09	5.441	70.464			
00:00:09	7.527	70.464			
00:00:09	9.518	70.464			
00:00:09	11.522	70.464			
00:00:09	13.401	70.464			
00:00:09	14.741	70.464			
00:00:09	15.715	70.464			
00:00:09	16.219	70.464			
00:00:09	16.639	70.464			
00:00:10	16.808	70.464			
00:00:10	16.601	70.464			
00:00:10	16.260	70.464			
00:00:10	15.660	70.464			
00:00:10	14.787	70.464			
00:00:10	13.958	70.464			
00:00:10	12.929	70.464			
00:00:10	11.933	70.464			
00:00:10	10.873	71.111			
00:00:10	9.921	71.111			
00:00:10	9.077	71.111			
00:00:10	8.135	71.111			
00:00:10	7.286	71.116			
00:00:10	6.395	71.116			
00:00:10	5.311	71.116			
00:00:10	4.445	71.116			
00:00:10	3.471	71.116			
00:00:10	2.497	71.116			
00:00:10	1.560	71.116			
00:00:10	0.580	71.116			
00:00:10	-0.034	71.116			
00:00:10	-0.690	71.116			
00:00:10	-1.245	71.116			
00:00:10	-1.440	71.116			
00:00:10	-1.813	71.116			
00:00:10	-1.977	71.116			
00:00:10	-2.057	71.116			
00:00:10	-1.981	71.116			
00:00:10	-1.599	71.116			
00:00:10	-1.637	71.116			
00:00:10	-1.535	71.116			
00:00:10	-1.386	71.116			
00:00:10	-1.287	71.116			
00:00:10	-0.862	71.116			
00:00:10	-0.753	71.116			
00:00:10	-0.515	71.116			
00:00:10	-0.342	71.116			
00:00:10	-0.487	71.116			
00:00:10	-0.528	71.116			
00:00:10	-0.715	71.116			
00:00:10	-0.700	71.116			
00:00:10	-0.616	71.116			
00:00:10	-1.003	71.116			
00:00:10	-1.139	71.116			
00:00:10	-1.363	71.116			
00:00:10	-1.552	71.116			
00:00:10	-1.539	71.116			
00:00:10	-1.669	71.116			
00:00:10	-1.724	71.116			
00:00:10	-2.044	71.116			
00:00:10	-2.469	71.116			
00:00:10	-2.654	71.116			
00:00:10	-2.882	71.116			
00:00:10	-2.992	71.116			
00:00:10	-3.181	71.116			
00:00:10	-3.213	71.116			
00:00:10	-3.111	71.116			
00:00:10	-3.326	71.116			
00:00:10	-3.581	71.116			
00:00:10	-3.653	71.116			
00:00:10	-3.709	71.116			
00:00:10	-3.503	71.116			
00:00:10	-3.266	71.116			
00:00:10	-3.143	71.116			
00:00:10	-2.967	71.116			
00:00:10	-2.950	71.116			
00:00:10	-2.868	71.116			
00:00:10	-2.827	71.116			
00:00:10	-2.748	71.116			
00:00:10	-2.585	71.116			
00:00:10	-2.607	71.116			
00:00:10	-2.249	71.116			
00:00:10	-1.988	71.116			
00:00:10	-1.928	71.116			
00:00:10	-1.687	71.116			
00:00:10	-1.678	71.116			
00:00:10	-1.608	71.116			
00:00:10	-1.447	71.116			
00:00:10	-1.428	71.116			
00:00:10	-1.287	71.116			
00:00:10	-1.242	71.116			
00:00:10	-1.287	71.116			
00:00:10	-1.363	71.116			
00:00:10	-1.572	71.116			
00:00:10	-1.466	71.116			
00:00:10	-1.529	71.116			
00:00:10	-1.550	71.116			
00:00:10	-1.410	71.116			
00:00:10	-1.625	71.116			
00:00:10	-1.629	71.116			
00:00:10	-1.744	71.116			
00:00:10	-1.888	71.116			
00:00:10	-1.865	71.116			
00:00:10	-1.823	71.116			
00:00:10	-1.401	71.116			
00:00:10	-0.637	71.116			
00:00:10	0.394	71.116			
00:00:10	1.979	71.116			
00:00:10	3.712	71.116			
00:00:10	5.669	71.116			
00:00:10	7.772	71.116			
00:00:10	9.811	71.116			
00:00:10	11.926	71.116			
00:00:10	13.484	71.116			
00:00:10	14.865	71.116			
00:00:10	16.082	71.116			
00:00:10	16.781	71.116			
00:00:10	17.253	71.116			
00:00:10	17.371	71.116			
00:00:10	17.120	71.116			
00:00:10	16.878	71.116			
00:00:10	16.160	71.116			
00:00:10	15.362	71.116			
00:00:10	14.421	71.116			
00:00:10	13.271	71.116			
00:00:10	12.136	71.116			
00:00:10	10.908	71.111			
00:00:10	9.917	71.111			
00:00:10	9.016	71.111			
00:00:10	7.920	71.111			
00:00:10	7.131	71.116			
00:00:10	6.159	71.116			
00:00:10	5.341	71.116			
00:00:10	4.527	71.116			
00:00:10	3.450	71.116			
00:00:10	2.464	71.116			
00:00:10	1.462	71.116			
00:00:10	0.537	71.116			
00:00:11	-0.237	71.116			
00:00:11	-0.991	71.116			
00:00:11	-1.417	71.116			
00:00:11	-1.695	71.116			
00:00:11	-1.852	71.116			
00:00:11	-1.784	71.116			
00:00:11	-1.818	71.116			
00:00:11	-1.716	71.116			
00:00:11	-1.499	71.116			
00:00:11	-1.377	71.116			
00:00:11	-0.995	71.116			
00:00:11	-0.721	71.116			
00:00:11	-0.435	71.116			
00:00:11	-0.265	71.116			
00:00:11	-0.130	71.116			
00:00:11	0.011	71.116			
00:00:11	-0.108	71.116			
00:00:11	-0.085	71.116			
00:00:11	-0.169	71.116			
00:00:11	-0.470	71.116			
00:00:11	-0.571	71.116			
00:00:11	-0.799	71.116			
00:00:11	-1.167	71.116			
00:00:11	-1.260	71.116			
00:00:11	-1.497	71.116			
00:00:11	-1.527	71.116			
00:00:11	-1.646	71.116			
00:00:11	-1.880	71.116			
00:00:11	-1.923	71.116			
00:00:11	-2.186	71.116			
00:00:11	-2.316	71.116			
00:00:11	-2.527	71.116			
00:00:11	-2.910	71.116			
00:00:11	-2.957	71.116			
00:00:11	-3.092	71.116			
00:00:11	-3.207	71.116			
00:00:11	-3.240	71.116			
00:00:11	-3.306	71.116			
00:00:11	-3.185	71.116			
00:00:11	-3.194	71.116			
00:00:11	-3.234	71.116			
00:00:11	-3.261	71.116			
00:00:11	-3.426	71.116			
00:00:11	-3.302	71.116			
00:00:11	-3.380	71.116			
00:00:11	-3.456	71.116			
00:00:11	-3.193	71.116			
00:00:11	-3.098	71.116			
00:00:11	-3.016	71.116			
00:00:11	-3.121	71.116			
00:00:11	-3.182	71.116			
00:00:11	-2.958	71.116			
00:00:11	-2.856	71.116			
00:00:11	-2.757	71.116			
00:00:11	-2.609	71.116			
00:00:11	-2.520	71.116			
00:00:11	-2.356	71.116			
00:00:11	-2.310	71.116			
00:00:11	-2.105	71.116			
00:00:11	-1.715	71.116			
00:00:11	-1.563	71.116			
00:00:11	-1.388	71.116			
00:00:11	-1.373	71.116			
00:00:11	-1.456	71.116			
00:00:11	-1.432	71.116			
00:00:11	-1.610	71.116			
00:00:11	-1.627	71.116			
00:00:11	-1.708	71.116			
00:00:11	-1.859	71.116			
00:00:11	-1.895	71.116			
00:00:11	-2.119	71.116			
00:00:11	-2.178	71.116			
00:00:11	-2.226	71.116			
00:00:11	-2.325	71.116			
00:00:11	-1.888	71.116			
00:00:11	-1.277	71.116			
00:00:11	-0.313	71.116			
00:00:11	0.886	71.116			
00:00:11	2.201	71.116			
00:00:11	3.944	71.116			
00:00:11	5.924	71.116			
00:00:11	7.939	71.116			
00:00:11	9.943	71.116			
00:00:11	11.519	71.116			
00:00:11	13.153	71.116			
00:00:11	14.262	71.116			
00:00:11	15.057	71.116			
00:00:11	15.733	71.116			
00:00:11	15.972	71.116			
00:00:11	15.885	71.116			
00:00:11	15.542	71.116			
00:00:11	14.968	71.116			
00:00:11	14.280	71.116			
00:00:11	13.222	71.116			
00:00:11	12.223	71.116			
00:00:11	11.377	71.116			
00:00:11	10.462	71.111			
00:00:11	9.541	71.111			
00:00:11	8.549	71.111			
00:00:11	7.744	71.111			
00:00:11	7.008	71.116			
00:00:11	6.034	71.116			
00:00:11	5.304	71.116			
00:00:11	4.535	71.116			
00:00:11	3.726	71.116			
00:00:11	2.905	71.116			
00:00:11	1.773	71.116			
00:00:11	0.854	71.116			
00:00:11	-0.142	71.116			
00:00:11	-1.034	71.116			
00:00:11	-1.569	71.116			
00:00:11	-2.056	71.116			
00:00:11	-2.107	71.116			
00:00:11	-2.012	71.116			
00:00:11	-1.933	71.116			
00:00:11	-1.730	71.116			
00:00:11	-1.615	71.116			
00:00:11	-1.462	71.116			
00:00:11	-1.090	71.116			
00:00:11	-0.783	71.116			
00:00:11	-0.475	71.116			
00:00:11	-0.187	71.116			
00:00:11	0.076	71.116			
00:00:11	0.350	71.116			
00:00:11	0.255	71.116			
00:00:11	0.328	71.116			
00:00:11	0.287	71.116			
00:00:11	0.010	71.116			
00:00:12	-0.192	71.116			
00:00:12	-0.549	71.116			
00:00:12	-0.829	71.116			
00:00:12	-1.023	71.116			
00:00:12	-1.317	71.116			
00:00:12	-1.354	71.116			
00:00:12	-1.440	71.116			
00:00:12	-1.526	71.116			
00:00:12	-1.711	71.116			
00:00:12	-2.080	71.116			
00:00:12	-2.227	71.116			
00:00:12	-2.663	71.116			
00:00:12	-2.825	71.116			
00:00:12	-2.848	71.116			
00:00:12	-2.804	71.116			
00:00:12	-2.598	71.116			
00:00:12	-2.756	71.116			
00:00:12	-2.997	71.116			
00:00:12	-2.954	71.116			
00:00:12	-2.916	71.116			
00:00:12	-2.892	71.116			
00:00:12	-2.933	71.116			
00:00:12	-2.989	71.116			
00:00:12	-2.877	71.116			
00:00:12	-2.887	71.116			
00:00:12	-2.740	71.116			
00:00:12	-2.539	71.116			
00:00:12	-2.658	71.116			
00:00:12	-2.560	71.116			
00:00:12	-2.505	71.116			
00:00:12	-2.248	71.116			
00:00:12	-2.030	71.116			
00:00:12	-1.995	71.116			
00:00:12	-1.594	71.116			
00:00:12	-1.414	71.116			
00:00:12	-1.453	71.116			
00:00:12	-1.404	71.116			
00:00:12	-1.401	71.116			
00:00:12	-1.260	71.116			
00:00:12	-1.147	71.116			
00:00:12	-1.122	71.116			
00:00:12	-1.065	71.116			
00:00:12	-1.176	71.116			
00:00:12	-1.291	71.116			
00:00:12	-1.400	71.116			
00:00:12	-1.483	71.116			
00:00:12	-1.346	71.116			
00:00:12	-1.507	71.116			
00:00:12	-1.559	71.116			
00:00:12	-1.503	71.116			
00:00:12	-1.550	71.116			
00:00:12	-1.286	71.116			
00:00:12	-1.159	71.116			
00:00:12	-0.841	71.116			
00:00:12	-0.219	71.116			
00:00:12	0.855	71.116			
00:00:12	2.480	71.116			
00:00:12	4.139	71.116			
00:00:12	5.975	71.116			
00:00:12	8.130	71.116			
00:00:12	10.022	71.116			
00:00:12	11.676	71.116			
00:00:12	12.895	71.116			
00:00:12	13.815	71.116			
00:00:12	14.609	71.116			
00:00:12	15.134	71.116			
00:00:12	15.406	71.116			
00:00:12	15.335	71.116			
00:00:12	14.930	71.116			
00:00:12	14.594	71.116			
00:00:12	13.834	71.116			
00:00:12	13.106	71.116			
00:00:12	12.338	71.116			
00:00:12	11.462	71.116			
00:00:12	10.646	71.116			
00:00:12	9.597	71.116			
00:00:12	8.639	72.453			
00:00:12	7.657	72.453			
00:00:12	6.510	72.453			
00:00:12	5.661	72.453			
00:00:12	4.727	72.458			
00:00:12	3.726	72.458			
00:00:12	2.773	72.458			
00:00:12	1.666	72.458			
00:00:12	0.735	72.458			
00:00:12	-0.210	72.458			
00:00:12	-0.916	72.458			
00:00:12	-1.284	72.458			
00:00:12	-1.667	72.458			
00:00:12	-1.837	72.458			
00:00:12	-1.967	72.458			
00:00:12	-2.010	72.458			
00:00:12	-1.869	72.458			
00:00:12	-1.896	72.458			
00:00:12	-1.818	72.458			
00:00:12	-1.565	72.458			
00:00:12	-1.385	72.458			
00:00:12	-0.977	72.458			
00:00:12	-0.676	72.458			
00:00:12	-0.406	72.458			
00:00:12	-0.064	72.458			
00:00:12	0.085	72.458			
00:00:12	0.301	72.458			
00:00:12	0.305	72.458			
00:00:12	0.288	72.458			
00:00:12	0.376	72.458			
00:00:12	0.145	72.458			
00:00:12	-0.027	72.458			
00:00:12	-0.396	72.458			
00:00:12	-0.736	72.458			
00:00:12	-0.869	72.458			
00:00:12	-1.195	72.458			
00:00:12	-1.678	72.458			
00:00:12	-1.906	72.458			
00:00:12	-2.084	72.458			
00:00:12	-2.148	72.458			
00:00:12	-2.399	72.458			
00:00:12	-2.639	72.458			
00:00:12	-2.819	72.458			
00:00:12	-3.145	72.458			
00:00:12	-3.071	72.458			
00:00:12	-3.042	72.458			
00:00:12	-3.175	72.458			
00:00:12	-3.240	72.458			
00:00:12	-3.329	72.458			
00:00:12	-3.211	72.458			
00:00:12	-3.113	72.458			
00:00:12	-3.013	72.458			
00:00:13	-2.770	72.458			
00:00:13	-2.763	72.458			
00:00:13	-2.560	72.458			
00:00:13	-2.404	72.458			
00:00:13	-2.345	72.458			
00:00:13	-2.220	72.458			
00:00:13	-2.264	72.458			
00:00:13	-2.023	72.458			
00:00:13	-1.710	72.458			
00:00:13	-1.694	72.458			
00:00:13	-1.526	72.458			
00:00:13	-1.386	72.458			
00:00:13	-1.373	72.458			
00:00:13	-1.228	72.458			
00:00:13	-1.247	72.458			
00:00:13	-1.189	72.458			
00:00:13	-1.216	72.458			
00:00:13	-1.281	72.458			
00:00:13	-1.163	72.458			
00:00:13	-1.312	72.458			
00:00:13	-1.287	72.458			
00:00:13	-1.388	72.458			
00:00:13	-1.591	72.458			
00:00:13	-1.597	72.458			
00:00:13	-1.771	72.458			
00:00:13	-1.809	72.458			
00:00:13	-1.941	72.458			
00:00:13	-2.080	72.458			
00:00:13	-1.892	72.458			
00:00:13	-1.603	72.458			
00:00:13	-0.791	72.458			
00:00:13	0.453	72.458			
00:00:13	1.873	72.458			
00:00:13	3.751	72.458			
00:00:13	5.631	72.458			
00:00:13	7.708	72.458			
00:00:13	9.786	72.458			
00:00:13	11.617	72.458			
00:00:13	13.395	72.458			
00:00:13	14.744	72.458			
00:00:13	15.694	72.458			
00:00:13	16.602	72.458			
00:00:13	16.964	72.458			
00:00:13	17.171	72.458			
00:00:13	17.078	72.458			
00:00:13	16.621	72.458			
00:00:13	16.159	72.458			
00:00:13	15.319	72.458			
00:00:13	14.419	72.458			
00:00:13	13.445	72.458			
00:00:13	12.460	72.458			
00:00:13	11.623	72.458			
00:00:13	10.669	73.143			
00:00:13	9.735	73.143			
00:00:13	8.897	73.143			
00:00:13	7.872	73.143			
00:00:13	7.046	73.148			
00:00:13	6.068	73.148			
00:00:13	5.184	73.148			
00:00:13	4.479	73.148			
00:00:13	3.466	73.148			
00:00:13	2.474	73.148			
00:00:13	1.618	73.148			
00:00:13	0.704	73.148			
00:00:13	0.045	73.148			
00:00:13	-0.462	73.148			
00:00:13	-0.598	73.148			
00:00:13	-0.620	73.148			
00:00:13	-0.849	73.148			
00:00:13	-0.798	73.148			
00:00:13	-0.812	73.148			
00:00:13	-0.620	73.148			
00:00:13	-0.314	73.148			
00:00:13	-0.208	73.148			
00:00:13	0.118	73.148			
00:00:13	0.266	73.148			
00:00:13	0.477	73.148			
00:00:13	0.777	73.148			
00:00:13	0.788	73.148			
00:00:13	0.827	73.148			
00:00:13	0.816	73.148			
00:00:13	0.774	73.148			
00:00:13	0.643	73.148			
00:00:13	0.283	73.148			
00:00:13	0.051	73.148			
00:00:13	-0.121	73.148			
00:00:13	-0.257	73.148			
00:00:13	-0.323	73.148			
00:00:13	-0.738	73.148			
00:00:13	-1.144	73.148			
00:00:13	-1.312	73.148			
00:00:13	-1.770	73.148			
00:00:13	-2.193	73.148			
00:00:13	-2.382	73.148			
00:00:13	-2.356	73.148			
00:00:13	-2.381	73.148			
00:00:13	-2.661	73.148			
00:00:13	-2.604	73.148			
00:00:13	-2.600	73.148			
00:00:13	-2.703	73.148			
00:00:13	-2.807	73.148			
00:00:13	-3.024	73.148			
00:00:13	-2.837	73.148			
00:00:13	-2.748	73.148			
00:00:13	-2.752	73.148			
00:00:13	-2.656	73.148			
00:00:13	-2.576	73.148			
00:00:13	-2.409	73.148			
00:00:13	-2.267	73.148			
00:00:13	-2.256	73.148			
00:00:13	-2.057	73.148			
00:00:13	-1.897	73.148			
00:00:13	-1.738	73.148			
00:00:13	-1.687	73.148			
00:00:13	-1.768	73.148			
00:00:13	-1.490	73.148			
00:00:13	-1.285	73.148			
00:00:13	-1.153	73.148			
00:00:13	-0.967	73.148			
00:00:13	-0.833	73.148			
00:00:13	-0.727	73.148			
00:00:13	-0.678	73.148			
00:00:13	-0.782	73.148			
00:00:13	-0.933	73.148			
00:00:13	-1.215	73.148			
00:00:13	-1.235	73.148			
00:00:13	-1.402	73.148			
00:00:13	-1.649	73.148			
00:00:14	-1.846	73.148			
00:00:14	-2.048	73.148			
00:00:14	-2.002	73.148			
00:00:14	-1.860	73.148			
00:00:14	-1.695	73.148			
00:00:14	-1.174	73.148			
00:00:14	-0.833	73.148			
00:00:14	-0.258	73.148			
00:00:14	0.681	73.148			
00:00:14	1.878	73.148			
00:00:14	3.639	73.148			
00:00:14	5.275	73.148			
00:00:14	7.109	73.148			
00:00:14	9.320	73.148			
00:00:14	11.270	73.148			
00:00:14	13.124	73.148			
00:00:14	14.552	73.148			
00:00:14	15.802	73.148			
00:00:14	16.989	73.148			
00:00:14	17.413	73.148			
00:00:14	17.609	73.148			
00:00:14	17.487	73.148			
00:00:14	17.153	73.148			
00:00:14	16.747	73.148			
00:00:14	15.930	73.148			
00:00:14	15.099	73.148			
00:00:14	14.182	73.148			
00:00:14	13.072	73.148			
00:00:14	12.117	73.143			
00:00:14	11.350	73.143			
00:00:14	10.622	73.143			
00:00:14	9.854	73.143			
00:00:14	8.890	73.148			
00:00:14	7.978	73.148			
00:00:14	6.944	73.148			
00:00:14	6.069	73.148			
00:00:14	5.168	73.148			
00:00:14	3.892	73.148			
00:00:14	2.974	73.148			
00:00:14	2.170	73.148			
00:00:14	1.393	73.148			
00:00:14	0.734	73.148			
00:00:14	-0.091	73.148			
00:00:14	-0.638	73.148			
00:00:14	-0.892	73.148			
00:00:14	-1.198	73.148			
00:00:14	-1.081	73.148			
00:00:14	-1.032	73.148			
00:00:14	-0.817	73.148			
00:00:14	-0.597	73.148			
00:00:14	-0.466	73.148			
00:00:14	-0.293	73.148			
00:00:14	-0.144	73.148			
00:00:14	0.000	73.148			
00:00:14	0.230	73.148			
00:00:14	0.252	73.148			
00:00:14	0.452	73.148			
00:00:14	0.445	73.148			
00:00:14	0.259	73.148			
00:00:14	0.242	73.148			
00:00:14	-0.035	73.148			
00:00:14	-0.167	73.148			
00:00:14	-0.370	73.148			
00:00:14	-0.590	73.148			
00:00:14	-0.665	73.148			
00:00:14	-1.186	73.148			
00:00:14	-1.393	73.148			
00:00:14	-1.406	73.148			
00:00:14	-1.492	73.148			
00:00:14	-1.498	73.148			
00:00:14	-1.862	73.148			
00:00:14	-2.102	73.148			
00:00:14	-2.251	73.148			
00:00:14	-2.615	73.148			
00:00:14	-2.617	73.148			
00:00:14	-2.838	73.148			
00:00:14	-2.873	73.148			
00:00:14	-2.743	73.148			
00:00:14	-2.837	73.148			
00:00:14	-2.853	73.148			
00:00:14	-2.937	73.148			
00:00:14	-2.998	73.148			
00:00:14	-3.021	73.148			
00:00:14	-3.042	73.148			
00:00:14	-2.812	73.148			
00:00:14	-2.650	73.148			
00:00:14	-2.518	73.148			
00:00:14	-2.364	73.148			
00:00:14	-2.484	73.148			
00:00:14	-2.465	73.148			
00:00:14	-2.412	73.148			
00:00:14	-2.465	73.148			
00:00:14	-2.269	73.148			
00:00:14	-2.238	73.148			
00:00:14	-2.213	73.148			
00:00:14	-2.102	73.148			
00:00:14	-2.240	73.148			
00:00:14	-2.065	73.148			
00:00:14	-2.025	73.148			
00:00:14	-2.165	73.148			
00:00:14	-2.176	73.148			
00:00:14	-2.274	73.148			
00:00:14	-2.245	73.148			
00:00:14	-2.322	73.148			
00:00:14	-2.533	73.148			
00:00:14	-2.537	73.148			
00:00:14	-2.677	73.148			
00:00:14	-2.537	73.148			
00:00:14	-2.307	73.148			
00:00:14	-2.345	73.148			
00:00:14	-2.278	73.148			
00:00:14	-2.297	73.148			
00:00:14	-2.101	73.148			
00:00:14	-1.686	73.148			
00:00:14	-0.975	73.148			
00:00:14	0.503	73.148			
00:00:14	2.242	73.148			
00:00:14	4.083	73.148			
00:00:14	6.143	73.148			
00:00:14	8.183	73.148			
00:00:14	10.397	73.148			
00:00:14	12.242	73.148			
00:00:14	13.688	73.148			
00:00:14	14.828	73.148			
00:00:14	15.709	73.148			
00:00:14	16.455	73.148			
00:00:14	16.846	73.148			
00:00:14	16.893	73.148			
00:00:15	16.901	73.148			
00:00:15	16.459	73.148			
00:00:15	15.926	73.148			
00:00:15	15.083	73.148			
00:00:15	14.033	73.148			
00:00:15	13.262	73.148			
00:00:15	12.391	73.148			
00:00:15	11.231	73.148			
00:00:15	10.266	71.776			
00:00:15	9.260	71.776			
00:00:15	8.470	71.776			
00:00:15	7.517	71.776			
00:00:15	6.430	71.781			
00:00:15	5.587	71.781			
00:00:15	4.639	71.781			
00:00:15	3.799	71.781			
00:00:15	2.771	71.781			
00:00:15	1.753	71.781			
00:00:15	1.110	71.781			
00:00:15	0.471	71.781			
00:00:15	-0.114	71.781			
00:00:15	-0.630	71.781			
00:00:15	-1.030	71.781			
00:00:15	-1.130	71.781			
00:00:15	-1.185	71.781			
00:00:15	-1.093	71.781			
00:00:15	-0.805	71.781			
00:00:15	-0.650	71.781			
00:00:15	-0.296	71.781			
00:00:15	-0.059	71.781			
00:00:15	0.159	71.781			
00:00:15	0.366	71.781			
00:00:15	0.506	71.781			
00:00:15	0.773	71.781			
00:00:15	0.816	71.781			
00:00:15	0.666	71.781			
00:00:15	0.705	71.781			
00:00:15	0.574	71.781			
00:00:15	0.479	71.781			
00:00:15	0.296	71.781			
00:00:15	-0.002	71.781			
00:00:15	-0.081	71.781			
00:00:15	-0.369	71.781			
00:00:15	-0.601	71.781			
00:00:15	-0.830	71.781			
00:00:15	-0.984	71.781			
00:00:15	-1.019	71.781			
00:00:15	-1.278	71.781			
00:00:15	-1.504	71.781			
00:00:15	-1.773	71.781			
00:00:15	-2.017	71.781			
00:00:15	-2.042	71.781			
00:00:15	-2.162	71.781			
00:00:15	-2.259	71.781			
00:00:15	-2.464	71.781			
00:00:15	-2.765	71.781			
00:00:15	-2.751	71.781			
00:00:15	-2.915	71.781			
00:00:15	-2.929	71.781			
00:00:15	-2.775	71.781			
00:00:15	-2.762	71.781			
00:00:15	-2.576	71.781			
00:00:15	-2.481	71.781			
00:00:15	-2.534	71.781			
00:00:15	-2.414	71.781			
00:00:15	-2.361	71.781			
00:00:15	-2.079	71.781			
00:00:15	-1.810	71.781			
00:00:15	-1.583	71.781			
00:00:15	-1.323	71.781			
00:00:15	-1.219	71.781			
00:00:15	-1.100	71.781			
00:00:15	-1.047	71.781			
00:00:15	-1.049	71.781			
00:00:15	-0.913	71.781			
00:00:15	-1.034	71.781			
00:00:15	-1.033	71.781			
00:00:15	-0.903	71.781			
00:00:15	-0.965	71.781			
00:00:15	-0.906	71.781			
00:00:15	-1.040	71.781			
00:00:15	-1.102	71.781			
00:00:15	-1.086	71.781			
00:00:15	-1.176	71.781			
00:00:15	-1.294	71.781			
00:00:15	-1.409	71.781			
00:00:15	-1.432	71.781			
00:00:15	-1.269	71.781			
00:00:15	-1.303	71.781			
00:00:15	-1.174	71.781			
00:00:15	-0.858	71.781			
00:00:15	-0.301	71.781			
00:00:15	0.834	71.781			
00:00:15	2.238	71.781			
00:00:15	4.026	71.781			
00:00:15	6.005	71.781			
00:00:15	8.045	71.781			
00:00:15	10.007	71.781			
00:00:15	11.733	71.781			
00:00:15	13.311	71.781			
00:00:15	14.570	71.781			
00:00:15	15.527	71.781			
00:00:15	16.346	71.781			
00:00:15	16.662	71.781			
00:00:15	16.715	71.781			
00:00:15	16.357	71.781			
00:00:15	15.691	71.781			
00:00:15	15.219	71.781			
00:00:15	14.470	71.781			
00:00:15	13.668	71.781			
00:00:15	12.856	71.781			
00:00:15	11.844	71.781			
00:00:15	11.057	73.143			
00:00:15	10.180	73.143			
00:00:15	9.201	73.143			
00:00:15	8.291	73.143			
00:00:15	7.399	73.148			
00:00:15	6.657	73.148			
00:00:15	5.613	73.148			
00:00:15	4.516	73.148			
00:00:15	3.758	73.148			
00:00:15	2.785	73.148			
00:00:15	1.919	73.148			
00:00:15	1.076	73.148			
00:00:15	0.324	73.148			
00:00:15	-0.121	73.148			
00:00:15	-0.579	73.148			
00:00:15	-0.774	73.148			
00:00:16	-0.836	73.148			
00:00:16	-0.909	73.148			
00:00:16	-0.743	73.148			
00:00:16	-0.720	73.148			
00:00:16	-0.445	73.148			
00:00:16	0.072	73.148			
00:00:16	0.166	73.148			
00:00:16	0.297	73.148			
00:00:16	0.291	73.148			
00:00:16	0.521	73.148			
00:00:16	0.823	73.148			
00:00:16	0.783	73.148			
00:00:16	0.816	73.148			
00:00:16	0.731	73.148			
00:00:16	0.489	73.148			
00:00:16	0.374	73.148			
00:00:16	0.068	73.148			
00:00:16	-0.092	73.148			
00:00:16	-0.297	73.148			
00:00:16	-0.449	73.148			
00:00:16	-0.382	73.148			
00:00:16	-0.619	73.148			
00:00:16	-0.798	73.148			
00:00:16	-1.059	73.148			
00:00:16	-1.365	73.148			
00:00:16	-1.422	73.148			
00:00:16	-1.710	73.148			
00:00:16	-1.950	73.148			
00:00:16	-1.954	73.148			
00:00:16	-2.232	73.148			
00:00:16	-2.302	73.148			
00:00:16	-2.556	73.148			
00:00:16	-2.827	73.148			
00:00:16	-2.805	73.148			
00:00:16	-2.794	73.148			
00:00:16	-2.588	73.148			
00:00:16	-2.463	73.148			
00:00:16	-2.438	73.148			
00:00:16	-2.174	73.148			
00:00:16	-2.287	73.148			
00:00:16	-2.115	73.148			
00:00:16	-1.929	73.148			
00:00:16	-1.850	73.148			
00:00:16	-1.631	73.148			
00:00:16	-1.579	73.148			
00:00:16	-1.335	73.148			
00:00:16	-0.975	73.148			
00:00:16	-0.930	73.148			
00:00:16	-0.732	73.148			
00:00:16	-0.644	73.148			
00:00:16	-0.561	73.148			
00:00:16	-0.447	73.148			
00:00:16	-0.603	73.148			
00:00:16	-0.685	73.148			
00:00:16	-0.781	73.148			
00:00:16	-0.864	73.148			
00:00:16	-0.833	73.148			
00:00:16	-0.884	73.148			
00:00:16	-0.939	73.148			
00:00:16	-1.014	73.148			
00:00:16	-1.269	73.148			
00:00:16	-1.164	73.148			
00:00:16	-1.236	73.148			
00:00:16	-1.437	73.148			
00:00:16	-1.419	73.148			
00:00:16	-1.256	73.148			
00:00:16	-0.554	73.148			
00:00:16	0.155	73.148			
00:00:16	1.380	73.148			
00:00:16	2.932	73.148			
00:00:16	4.660	73.148			
00:00:16	6.890	73.148			
00:00:16	9.031	73.148			
00:00:16	11.063	73.148			
00:00:16	12.959	73.148			
00:00:16	14.406	73.148			
00:00:16	15.828	73.148			
00:00:16	16.759	73.148			
00:00:16	17.351	73.148			
00:00:16	17.930	73.148			
00:00:16	17.919	73.148			
00:00:16	17.735	73.148			
00:00:16	17.219	73.148			
00:00:16	16.544	73.148			
00:00:16	15.999	73.148			
00:00:16	14.950	73.148			
00:00:16	13.893	73.148			
00:00:16	12.917	73.148			
00:00:16	12.066	81.702			
00:00:16	11.362	81.702			
00:00:16	10.458	81.702			
00:00:16	9.568	81.702			
00:00:16	8.672	81.707			
00:00:16	7.657	81.707			
00:00:16	6.777	81.707			
00:00:16	5.868	81.707			
00:00:16	4.993	81.707			
00:00:16	4.140	81.707			
00:00:16	3.111	81.707			
00:00:16	2.407	81.707			
00:00:16	1.605	81.707			
00:00:16	1.066	81.707			
00:00:16	0.726	81.707			
00:00:16	0.236	81.707			
00:00:16	0.117	81.707			
00:00:16	-0.008	81.707			
00:00:16	-0.342	81.707			
00:00:16	-0.062	81.707			
00:00:16	0.049	81.707			
00:00:16	0.188	81.707			
00:00:16	0.363	81.707			
00:00:16	0.321	81.707			
00:00:16	0.682	81.707			
00:00:16	0.752	81.707			
00:00:16	0.861	81.707			
00:00:16	0.936	81.707			
00:00:16	0.757	81.707			
00:00:16	0.693	81.707			
00:00:16	0.554	81.707			
00:00:16	0.366	81.707			
00:00:16	0.389	81.707			
00:00:16	0.280	81.707			
00:00:16	0.151	81.707			
00:00:16	-0.060	81.707			
00:00:16	-0.249	81.707			
00:00:16	-0.313	81.707			
00:00:16	-0.640	81.707			
00:00:16	-0.724	81.707			
00:00:17	-0.676	81.707			
00:00:17	-0.906	81.707			
00:00:17	-1.060	81.707			
00:00:17	-1.486	81.707			
00:00:17	-1.673	81.707			
00:00:17	-1.732	81.707			
00:00:17	-2.094	81.707			
00:00:17	-2.283	81.707			
00:00:17	-2.511	81.707			
00:00:17	-2.558	81.707			
00:00:17	-2.424	81.707			
00:00:17	-2.494	81.707			
00:00:17	-2.300	81.707			
00:00:17	-2.195	81.707			
00:00:17	-2.162	81.707			
00:00:17	-1.963	81.707			
00:00:17	-1.964	81.707			
00:00:17	-1.680	81.707			
00:00:17	-1.492	81.707			
00:00:17	-1.546	81.707			
00:00:17	-1.293	81.707			
00:00:17	-1.203	81.707			
00:00:17	-0.975	81.707			
00:00:17	-1.010	81.707			
00:00:17	-1.078	81.707			
00:00:17	-0.752	81.707			
00:00:17	-0.564	81.707			
00:00:17	-0.375	81.707			
00:00:17	-0.277	81.707			
00:00:17	-0.484	81.707			
00:00:17	-0.328	81.707			
00:00:17	-0.499	81.707			
00:00:17	-0.705	81.707			
00:00:17	-0.800	81.707			
00:00:17	-1.140	81.707			
00:00:17	-1.191	81.707			
00:00:17	-1.282	81.707			
00:00:17	-1.453	81.707			
00:00:17	-1.307	81.707			
00:00:17	-1.285	81.707			
00:00:17	-1.067	81.707			
00:00:17	-0.912	81.707			
00:00:17	-0.737	81.707			
00:00:17	-0.138	81.707			
00:00:17	0.633	81.707			
00:00:17	1.758	81.707			
00:00:17	3.477	81.707			
00:00:17	5.382	81.707			
00:00:17	7.470	81.707			
00:00:17	9.456	81.707			
00:00:17	11.510	81.707			
00:00:17	13.399	81.707			
00:00:17	14.660	81.707			
00:00:17	15.928	81.707			
00:00:17	16.792	81.707			
00:00:17	17.345	81.707			
00:00:17	17.715	81.707			
00:00:17	17.442	81.707			
00:00:17	17.220	81.707			
00:00:17	16.797	81.707			
00:00:17	16.087	81.707			
00:00:17	15.401	81.707			
00:00:17	14.464	81.707			
00:00:17	13.544	81.707			
00:00:17	12.679	73.846			
00:00:17	11.730	73.846			
00:00:17	10.943	73.846			
00:00:17	10.007	73.846			
00:00:17	9.071	73.851			
00:00:17	8.255	73.851			
00:00:17	7.360	73.851			
00:00:17	6.707	73.851			
00:00:17	5.827	73.851			
00:00:17	5.032	73.851			
00:00:17	4.155	73.851			
00:00:17	3.003	73.851			
00:00:17	2.190	73.851			
00:00:17	1.550	73.851			
00:00:17	1.015	73.851			
00:00:17	0.693	73.851			
00:00:17	0.262	73.851			
00:00:17	0.096	73.851			
00:00:17	0.061	73.851			
00:00:17	-0.179	73.851			
00:00:17	-0.265	73.851			
00:00:17	-0.294	73.851			
00:00:17	0.128	73.851			
00:00:17	0.574	73.851			
00:00:17	0.643	73.851			
00:00:17	0.834	73.851			
00:00:17	0.846	73.851			
00:00:17	1.079	73.851			
00:00:17	1.348	73.851			
00:00:17	1.338	73.851			
00:00:17	1.404	73.851			
00:00:17	1.284	73.851			
00:00:17	1.124	73.851			
00:00:17	1.009	73.851			
00:00:17	0.629	73.851			
00:00:17	0.468	73.851			
00:00:17	0.379	73.851			
00:00:17	0.057	73.851			
00:00:17	-0.224	73.851			
00:00:17	-0.646	73.851			
00:00:17	-0.972	73.851			
00:00:17	-1.265	73.851			
00:00:17	-1.461	73.851			
00:00:17	-1.435	73.851			
00:00:17	-1.825	73.851			
00:00:17	-2.005	73.851			
00:00:17	-1.935	73.851			
00:00:17	-2.117	73.851			
00:00:17	-2.111	73.851			
00:00:17	-2.095	73.851			
00:00:17	-2.088	73.851			
00:00:17	-2.069	73.851			
00:00:17	-2.186	73.851			
00:00:17	-2.011	73.851			
00:00:17	-2.002	73.851			
00:00:17	-2.028	73.851			
00:00:17	-1.948	73.851			
00:00:17	-1.794	73.851			
00:00:17	-1.301	73.851			
00:00:17	-0.980	73.851			
00:00:17	-0.878	73.851			
00:00:17	-0.590	73.851			
00:00:17	-0.411	73.851			
00:00:17	-0.180	73.851			
00:00:18	-0.010	73.851			
00:00:18	-0.022	73.851			
00:00:18	0.277	73.851			
00:00:18	0.083	73.851			
00:00:18	-0.073	73.851			
00:00:18	0.011	73.851			
00:00:18	-0.053	73.851			
00:00:18	-0.029	73.851			
00:00:18	-0.280	73.851			
00:00:18	-0.456	73.851			
00:00:18	-0.445	73.851			
00:00:18	-0.577	73.851			
00:00:18	-0.518	73.851			
00:00:18	-0.699	73.851			
00:00:18	-0.891	73.851			
00:00:18	-0.723	73.851			
00:00:18	-0.597	73.851			
00:00:18	-0.093	73.851			
00:00:18	0.322	73.851			
00:00:18	0.735	73.851			
00:00:18	1.862	73.851			
00:00:18	3.175	73.851			
00:00:18	4.844	73.851			
00:00:18	6.562	73.851			
00:00:18	8.338	73.851			
00:00:18	10.448	73.851			
00:00:18	12.240	73.851			
00:00:18	13.833	73.851			
00:00:18	15.153	73.851			
00:00:18	16.073	73.851			
00:00:18	16.822	73.851			
00:00:18	17.111	73.851			
00:00:18	17.143	73.851			
00:00:18	17.000	73.851			
00:00:18	16.389	73.851			
00:00:18	15.734	73.851			
00:00:18	14.903	73.851			
00:00:18	14.059	73.851			
00:00:18	13.309	73.851			
00:00:18	12.193	73.851			
00:00:18	11.244	73.846			
00:00:18	10.390	73.846			
00:00:18	9.390	73.846			
00:00:18	8.635	73.846			
00:00:18	7.721	73.851			
00:00:18	6.964	73.851			
00:00:18	6.209	73.851			
00:00:18	5.257	73.851			
00:00:18	4.532	73.851			
00:00:18	3.603	73.851			
00:00:18	2.761	73.851			
00:00:18	1.855	73.851			
00:00:18	0.918	73.851			
00:00:18	0.646	73.851			
00:00:18	0.177	73.851			
00:00:18	-0.274	73.851			
00:00:18	-0.259	73.851			
00:00:18	-0.211	73.851			
00:00:18	0.163	73.851			
00:00:18	0.365	73.851			
00:00:18	0.488	73.851			
00:00:18	0.710	73.851			
00:00:18	0.832	73.851			
00:00:18	1.156	73.851			
00:00:18	1.356	73.851			
00:00:18	1.251	73.851			
00:00:18	1.351	73.851			
00:00:18	1.382	73.851			
00:00:18	1.519	73.851			
00:00:18	1.479	73.851			
00:00:18	1.134	73.851			
00:00:18	1.227	73.851			
00:00:18	0.894	73.851			
00:00:18	0.562	73.851			
00:00:18	0.335	73.851			
00:00:18	-0.072	73.851			
00:00:18	-0.169	73.851			
00:00:18	-0.480	73.851			
00:00:18	-0.887	73.851			
00:00:18	-1.020	73.851			
00:00:18	-1.230	73.851			
00:00:18	-1.273	73.851			
00:00:18	-1.459	73.851			
00:00:18	-1.633	73.851			
00:00:18	-1.562	73.851			
00:00:18	-1.723	73.851			
00:00:18	-1.860	73.851			
00:00:18	-1.881	73.851			
00:00:18	-1.991	73.851			
00:00:18	-1.701	73.851			
00:00:18	-1.732	73.851			
00:00:18	-1.727	73.851			
00:00:18	-1.645	73.851			
00:00:18	-1.714	73.851			
00:00:18	-1.487	73.851			
00:00:18	-1.505	73.851			
00:00:18	-1.590	73.851			
00:00:18	-1.430	73.851			
00:00:18	-1.384	73.851			
00:00:18	-1.074	73.851			
00:00:18	-0.879	73.851			
00:00:18	-0.813	73.851			
00:00:18	-0.634	73.851			
00:00:18	-0.686	73.851			
00:00:18	-0.650	73.851			
00:00:18	-0.678	73.851			
00:00:18	-0.731	73.851			
00:00:18	-0.316	73.851			
00:00:18	-0.289	73.851			
00:00:18	-0.283	73.851			
00:00:18	-0.287	73.851			
00:00:18	-0.349	73.851			
00:00:18	-0.244	73.851			
00:00:18	-0.514	73.851			
00:00:18	-0.764	73.851			
00:00:18	-0.895	73.851			
00:00:18	-1.084	73.851			
00:00:18	-1.101	73.851			
00:00:18	-0.961	73.851			
00:00:18	-0.615	73.851			
00:00:18	-0.111	73.851			
00:00:18	0.322	73.851			
00:00:18	1.348	73.851			
00:00:18	2.730	73.851			
00:00:18	4.248	73.851			
00:00:18	6.139	73.851			
00:00:18	8.046	73.851			
00:00:18	10.080	73.851			
00:00:19	11.921	73.851			
00:00:19	13.396	73.851			
00:00:19	14.949	73.851			
00:00:19	16.039	73.851			
00:00:19	17.003	73.851			
00:00:19	17.590	73.851			
00:00:19	17.709	73.851			
00:00:19	17.696	73.851			
00:00:19	17.270	73.851			
00:00:19	16.746	73.851			
00:00:19	16.166	73.851			
00:00:19	15.426	73.851			
00:00:19	14.690	73.851			
00:00:19	13.688	73.851			
00:00:19	12.796	73.851			
00:00:19	12.061	73.851			
00:00:19	11.023	75.294			
00:00:19	10.227	75.294			
00:00:19	9.353	75.294			
00:00:19	8.386	75.294			
00:00:19	7.604	75.299			
00:00:19	6.727	75.299			
00:00:19	5.841	75.299			
00:00:19	4.797	75.299			
00:00:19	3.763	75.299			
00:00:19	3.165	75.299			
00:00:19	2.281	75.299			
00:00:19	1.547	75.299			
00:00:19	1.029	75.299			
00:00:19	0.478	75.299			
00:00:19	0.341	75.299			
00:00:19	0.008	75.299			
00:00:19	-0.152	75.299			
00:00:19	0.042	75.299			
00:00:19	0.060	75.299			
00:00:19	0.198	75.299			
00:00:19	0.352	75.299			
00:00:19	0.696	75.299			
00:00:19	1.146	75.299			
00:00:19	1.287	75.299			
00:00:19	1.392	75.299			
00:00:19	1.396	75.299			
00:00:19	1.385	75.299			
00:00:19	1.701	75.299			
00:00:19	1.562	75.299			
00:00:19	1.531	75.299			
00:00:19	1.440	75.299			
00:00:19	1.117	75.299			
00:00:19	1.113	75.299			
00:00:19	0.783	75.299			
00:00:19	0.436	75.299			
00:00:19	0.230	75.299			
00:00:19	-0.153	75.299			
00:00:19	-0.409	75.299			
00:00:19	-0.819	75.299			
00:00:19	-1.087	75.299			
00:00:19	-1.243	75.299			
00:00:19	-1.584	75.299			
00:00:19	-1.619	75.299			
00:00:19	-1.729	75.299			
00:00:19	-1.787	75.299			
00:00:19	-1.724	75.299			
00:00:19	-1.848	75.299			
00:00:19	-1.616	75.299			
00:00:19	-1.465	75.299			
00:00:19	-1.572	75.299			
00:00:19	-1.471	75.299			
00:00:19	-1.678	75.299			
00:00:19	-1.700	75.299			
00:00:19	-1.624	75.299			
00:00:19	-1.639	75.299			
00:00:19	-1.314	75.299			
00:00:19	-1.216	75.299			
00:00:19	-1.011	75.299			
00:00:19	-0.705	75.299			
00:00:19	-0.726	75.299			
00:00:19	-0.574	75.299			
00:00:19	-0.508	75.299			
00:00:19	-0.571	75.299			
00:00:19	-0.449	75.299			
00:00:19	-0.437	75.299			
00:00:19	-0.207	75.299			
00:00:19	-0.192	75.299			
00:00:19	-0.293	75.299			
00:00:19	-0.110	75.299			
00:00:19	-0.304	75.299			
00:00:19	-0.465	75.299			
00:00:19	-0.617	75.299			
00:00:19	-0.810	75.299			
00:00:19	-0.865	75.299			
00:00:19	-0.974	75.299			
00:00:19	-0.956	75.299			
00:00:19	-0.968	75.299			
00:00:19	-1.097	75.299			
00:00:19	-0.931	75.299			
00:00:19	-1.027	75.299			
00:00:19	-0.978	75.299			
00:00:19	-0.430	75.299			
00:00:19	0.263	75.299			
00:00:19	1.645	75.299			
00:00:19	3.052	75.299			
00:00:19	4.648	75.299			
00:00:19	6.587	75.299			
00:00:19	8.499	75.299			
00:00:19	10.498	75.299			
00:00:19	12.211	75.299			
00:00:19	13.650	75.299			
00:00:19	14.992	75.299			
00:00:19	15.963	75.299			
00:00:19	16.889	75.299			
00:00:19	17.473	75.299			
00:00:19	17.555	75.299			
00:00:19	17.523	75.299			
00:00:19	17.011	75.299			
00:00:19	16.481	75.299			
00:00:19	15.940	75.299			
00:00:19	15.101	75.299			
00:00:19	14.394	75.299			
00:00:19	13.368	75.299			
00:00:19	12.576	75.299			
00:00:19	11.885	73.143			
00:00:19	10.924	73.143			
00:00:19	10.221	73.143			
00:00:19	9.391	73.143			
00:00:19	8.552	73.148			
00:00:19	7.844	73.148			
00:00:19	6.706	73.148			
00:00:19	5.704	73.148			
00:00:20	4.806	73.148			
00:00:20	3.861	73.148			
00:00:20	3.216	73.148			
00:00:20	2.197	73.148			
00:00:20	1.548	73.148			
00:00:20	0.991	73.148			
00:00:20	0.343	73.148			
00:00:20	0.030	73.148			
00:00:20	-0.283	73.148			
00:00:20	-0.197	73.148			
00:00:20	0.222	73.148			
00:00:20	0.544	73.148			
00:00:20	0.979	73.148			
00:00:20	1.106	73.148			
00:00:20	1.343	73.148			
00:00:20	1.559	73.148			
00:00:20	1.506	73.148			
00:00:20	1.642	73.148			
00:00:20	1.610	73.148			
00:00:20	1.419	73.148			
00:00:20	1.481	73.148			
00:00:20	1.229	73.148			
00:00:20	1.266	73.148			
00:00:20	1.193	73.148			
00:00:20	0.957	73.148			
00:00:20	0.885	73.148			
00:00:20	0.533	73.148			
00:00:20	0.323	73.148			
00:00:20	0.132	73.148			
00:00:20	-0.149	73.148			
00:00:20	-0.210	73.148			
00:00:20	-0.528	73.148			
00:00:20	-0.761	73.148			
00:00:20	-0.916	73.148			
00:00:20	-1.107	73.148			
00:00:20	-1.201	73.148			
00:00:20	-1.427	73.148			
00:00:20	-1.529	73.148			
00:00:20	-1.305	73.148			
00:00:20	-1.471	73.148			
00:00:20	-1.495	73.148			
00:00:20	-1.447	73.148			
00:00:20	-1.462	73.148			
00:00:20	-1.313	73.148			
00:00:20	-1.417	73.148			
00:00:20	-1.314	73.148			
00:00:20	-1.354	73.148			
00:00:20	-1.568	73.148			
00:00:20	-1.446	73.148			
00:00:20	-1.463	73.148			
00:00:20	-1.338	73.148			
00:00:20	-1.036	73.148			
00:00:20	-1.026	73.148			
00:00:20	-0.873	73.148			
00:00:20	-0.843	73.148			
00:00:20	-0.757	73.148			
00:00:20	-0.437	73.148			
00:00:20	-0.491	73.148			
00:00:20	-0.230	73.148			
00:00:20	-0.134	73.148			
00:00:20	-0.031	73.148			
00:00:20	0.203	73.148			
00:00:20	0.115	73.148			
00:00:20	0.180	73.148			
00:00:20	0.066	73.148			
00:00:20	-0.178	73.148			
00:00:20	-0.197	73.148			
00:00:20	-0.403	73.148			
00:00:20	-0.461	73.148			
00:00:20	-0.471	73.148			
00:00:20	-0.735	73.148			
00:00:20	-0.687	73.148			
00:00:20	-0.761	73.148			
00:00:20	-0.786	73.148			
00:00:20	-0.630	73.148			
00:00:20	-0.476	73.148			
00:00:20	0.137	73.148			
00:00:20	0.732	73.148			
00:00:20	1.690	73.148			
00:00:20	3.195	73.148			
00:00:20	4.753	73.148			
00:00:20	6.671	73.148			
00:00:20	8.624	73.148			
00:00:20	10.687	73.148			
00:00:20	12.813	73.148			
00:00:20	14.240	73.148			
00:00:20	15.427	73.148			
00:00:20	16.465	73.148			
00:00:20	17.173	73.148			
00:00:20	17.782	73.148			
00:00:20	17.693	73.148			
00:00:20	17.420	73.148			
00:00:20	17.123	73.148			
00:00:20	16.509	73.148			
00:00:20	15.878	73.148			
00:00:20	14.820	73.148			
00:00:20	13.820	73.148			
00:00:20	13.019	73.148			
00:00:20	11.897	73.148			
00:00:20	11.105	73.148			
00:00:20	10.096	71.776			
00:00:20	9.174	71.776			
00:00:20	8.466	71.776			
00:00:20	7.463	71.776			
00:00:20	6.721	71.781			
00:00:20	5.941	71.781			
00:00:20	5.137	71.781			
00:00:20	4.429	71.781			
00:00:20	3.492	71.781			
00:00:20	2.789	71.781			
00:00:20	2.227	71.781			
00:00:20	1.529	71.781			
00:00:20	1.119	71.781			
00:00:20	0.643	71.781			
00:00:20	0.432	71.781			
00:00:20	0.406	71.781			
00:00:20	0.279	71.781			
00:00:20	0.387	71.781			
00:00:20	0.365	71.781			
00:00:20	0.524	71.781			
00:00:20	0.945	71.781			
00:00:20	1.038	71.781			
00:00:20	1.294	71.781			
00:00:20	1.543	71.781			
00:00:20	1.698	71.781			
00:00:20	1.819	71.781			
00:00:20	1.565	71.781			
00:00:20	1.512	71.781			
00:00:21	1.516	71.781			
00:00:21	1.311	71.781			
00:00:21	1.303	71.781			
00:00:21	1.010	71.781			
00:00:21	0.938	71.781			
00:00:21	0.719	71.781			
00:00:21	0.349	71.781			
00:00:21	0.106	71.781			
00:00:21	-0.287	71.781			
00:00:21	-0.369	71.781			
00:00:21	-0.337	71.781			
00:00:21	-0.518	71.781			
00:00:21	-0.394	71.781			
00:00:21	-0.259	71.781			
00:00:21	-0.341	71.781			
00:00:21	-0.599	71.781			
00:00:21	-1.028	71.781			
00:00:21	-1.199	71.781			
00:00:21	-1.391	71.781			
00:00:21	-1.577	71.781			
00:00:21	-1.590	71.781			
00:00:21	-1.774	71.781			
00:00:21	-1.560	71.781			
00:00:21	-1.347	71.781			
00:00:21	-1.412	71.781			
00:00:21	-1.211	71.781			
00:00:21	-1.064	71.781			
00:00:21	-0.786	71.781			
00:00:21	-0.606	71.781			
00:00:21	-0.505	71.781			
00:00:21	-0.299	71.781			
00:00:21	-0.275	71.781			
00:00:21	-0.276	71.781			
00:00:21	-0.210	71.781			
00:00:21	-0.144	71.781			
00:00:21	0.250	71.781			
00:00:21	0.426	71.781			
00:00:21	0.326	71.781			
00:00:21	0.396	71.781			
00:00:21	0.341	71.781			
00:00:21	0.558	71.781			
00:00:21	0.482	71.781			
00:00:21	0.162	71.781			
00:00:21	0.146	71.781			
00:00:21	0.056	71.781			
00:00:21	-0.007	71.781			
00:00:21	-0.342	71.781			
00:00:21	-0.590	71.781			
00:00:21	-0.556	71.781			
00:00:21	-0.690	71.781			
00:00:21	-0.917	71.781			
00:00:21	-0.941	71.781			
00:00:21	-0.854	71.781			
00:00:21	-0.332	71.781			
00:00:21	0.318	71.781			
00:00:21	1.216	71.781			
00:00:21	2.477	71.781			
00:00:21	3.897	71.781			
00:00:21	5.767	71.781			
00:00:21	7.612	71.781			
00:00:21	9.527	71.781			
00:00:21	11.451	71.781			
00:00:21	12.851	71.781			
00:00:21	14.295	71.781			
00:00:21	15.449	71.781			
00:00:21	16.110	71.781			
00:00:21	16.518	71.781			
00:00:21	16.472	71.781			
00:00:21	16.316	71.781			
00:00:21	15.988	71.781			
00:00:21	15.315	71.781			
00:00:21	14.749	71.781			
00:00:21	13.910	71.781			
00:00:21	13.014	71.781			
00:00:21	12.299	71.781			
00:00:21	11.342	71.781			
00:00:21	10.687	73.143			
00:00:21	9.845	73.143			
00:00:21	8.996	73.143			
00:00:21	8.304	73.143			
00:00:21	7.430	73.148			
00:00:21	6.759	73.148			
00:00:21	5.816	73.148			
00:00:21	4.763	73.148			
00:00:21	3.871	73.148			
00:00:21	2.962	73.148			
00:00:21	2.295	73.148			
00:00:21	1.639	73.148			
00:00:21	1.018	73.148			
00:00:21	0.632	73.148			
00:00:21	0.258	73.148			
00:00:21	0.170	73.148			
00:00:21	0.158	73.148			
00:00:21	0.077	73.148			
00:00:21	0.386	73.148			
00:00:21	0.662	73.148			
00:00:21	0.950	73.148			
00:00:21	1.232	73.148			
00:00:21	1.294	73.148			
00:00:21	1.549	73.148			
00:00:21	1.667	73.148			
00:00:21	1.725	73.148			
00:00:21	1.885	73.148			
00:00:21	1.682	73.148			
00:00:21	1.716	73.148			
00:00:21	1.696	73.148			
00:00:21	1.543	73.148			
00:00:21	1.348	73.148			
00:00:21	1.005	73.148			
00:00:21	0.899	73.148			
00:00:21	0.770	73.148			
00:00:21	0.421	73.148			
00:00:21	0.330	73.148			
00:00:21	0.016	73.148			
00:00:21	-0.062	73.148			
00:00:21	-0.035	73.148			
00:00:21	-0.190	73.148			
00:00:21	-0.152	73.148			
00:00:21	-0.522	73.148			
00:00:21	-0.863	73.148			
00:00:21	-0.906	73.148			
00:00:21	-1.088	73.148			
00:00:21	-1.102	73.148			
00:00:21	-1.212	73.148			
00:00:21	-1.324	73.148			
00:00:21	-1.346	73.148			
00:00:21	-1.453	73.148			
00:00:21	-1.337	73.148			
00:00:22	-1.365	73.148			
00:00:22	-1.499	73.148			
00:00:22	-1.279	73.148			
00:00:22	-1.165	73.148			
00:00:22	-0.895	73.148			
00:00:22	-0.692	73.148			
00:00:22	-0.796	73.148			
00:00:22	-0.559	73.148			
00:00:22	-0.454	73.148			
00:00:22	-0.201	73.148			
00:00:22	0.041	73.148			
00:00:22	0.005	73.148			
00:00:22	0.042	73.148			
00:00:22	0.045	73.148			
00:00:22	0.136	73.148			
00:00:22	0.224	73.148			
00:00:22	0.082	73.148			
00:00:22	0.205	73.148			
00:00:22	0.065	73.148			
00:00:22	-0.131	73.148			
00:00:22	-0.111	73.148			
00:00:22	-0.198	73.148			
00:00:22	-0.191	73.148			
00:00:22	-0.286	73.148			
00:00:22	-0.450	73.148			
00:00:22	-0.338	73.148			
00:00:22	-0.486	73.148			
00:00:22	-0.333	73.148			
00:00:22	-0.010	73.148			
00:00:22	0.390	73.148			
00:00:22	1.375	73.148			
00:00:22	2.400	73.148			
00:00:22	3.621	73.148			
00:00:22	5.132	73.148			
00:00:22	6.737	73.148			
00:00:22	8.550	73.148			
00:00:22	10.283	73.148			
00:00:22	11.875	73.148			
00:00:22	13.461	73.148			
00:00:22	14.634	73.148			
00:00:22	15.628	73.148			
00:00:22	16.142	73.148			
00:00:22	16.340	73.148			
00:00:22	16.549	73.148			
00:00:22	16.208	73.148			
00:00:22	15.853	73.148			
00:00:22	15.427	73.148			
00:00:22	14.756	73.148			
00:00:22	14.054	73.148			
00:00:22	13.135	73.148			
00:00:22	12.329	73.148			
00:00:22	11.527	73.148			
00:00:22	10.602	73.846			
00:00:22	9.816	73.846			
00:00:22	8.899	73.846			
00:00:22	8.111	73.846			
00:00:22	7.389	73.851			
00:00:22	6.473	73.851			
00:00:22	5.772	73.851			
00:00:22	4.846	73.851			
00:00:22	3.769	73.851			
00:00:22	2.964	73.851			
00:00:22	2.156	73.851			
00:00:22	1.769	73.851			
00:00:22	1.265	73.851			
00:00:22	0.852	73.851			
00:00:22	0.748	73.851			
00:00:22	0.405	73.851			
00:00:22	0.311	73.851			
00:00:22	0.195	73.851			
00:00:22	0.199	73.851			
00:00:22	0.450	73.851			
00:00:22	0.458	73.851			
00:00:22	0.569	73.851			
00:00:22	0.818	73.851			
00:00:22	1.027	73.851			
00:00:22	1.517	73.851			
00:00:22	1.666	73.851			
00:00:22	1.668	73.851			
00:00:22	1.806	73.851			
00:00:22	1.733	73.851			
00:00:22	1.883	73.851			
00:00:22	1.769	73.851			
00:00:22	1.672	73.851			
00:00:22	1.628	73.851			
00:00:22	1.309	73.851			
00:00:22	1.018	73.851			
00:00:22	0.713	73.851			
00:00:22	0.480	73.851			
00:00:22	0.299	73.851			
00:00:22	-0.238	73.851			
00:00:22	-0.407	73.851			
00:00:22	-0.504	73.851			
00:00:22	-0.731	73.851			
00:00:22	-0.750	73.851			
00:00:22	-0.990	73.851			
00:00:22	-1.050	73.851			
00:00:22	-1.004	73.851			
00:00:22	-1.164	73.851			
00:00:22	-1.165	73.851			
00:00:22	-1.351	73.851			
00:00:22	-1.395	73.851			
00:00:22	-1.313	73.851			
00:00:22	-1.296	73.851			
00:00:22	-0.998	73.851			
00:00:22	-1.041	73.851			
00:00:22	-1.104	73.851			
00:00:22	-0.853	73.851			
00:00:22	-0.744	73.851			
00:00:22	-0.422	73.851			
00:00:22	-0.183	73.851			
00:00:22	-0.091	73.851			
00:00:22	0.110	73.851			
00:00:22	-0.059	73.851			
00:00:22	-0.018	73.851			
00:00:22	0.047	73.851			
00:00:22	-0.025	73.851			
00:00:22	0.154	73.851			
00:00:22	0.268	73.851			
00:00:22	0.400	73.851			
00:00:22	0.492	73.851			
00:00:22	0.487	73.851			
00:00:22	0.661	73.851			
00:00:22	0.622	73.851			
00:00:22	0.461	73.851			
00:00:22	0.366	73.851			
00:00:22	0.163	73.851			
00:00:22	0.184	73.851			
00:00:23	-0.033	73.851			
00:00:23	-0.278	73.851			
00:00:23	-0.207	73.851			
00:00:23	-0.187	73.851			
00:00:23	0.081	73.851			
00:00:23	0.273	73.851			
00:00:23	0.594	73.851			
00:00:23	1.397	73.851			
00:00:23	2.467	73.851			
00:00:23	3.953	73.851			
00:00:23	5.624	73.851			
00:00:23	7.372	73.851			
00:00:23	9.490	73.851			
00:00:23	11.401	73.851			
00:00:23	13.004	73.851			
00:00:23	14.514	73.851			
00:00:23	15.513	73.851			
00:00:23	16.385	73.851			
00:00:23	16.798	73.851			
00:00:23	16.982	73.851			
00:00:23	17.177	73.851			
00:00:23	16.894	73.851			
00:00:23	16.473	73.851			
00:00:23	15.752	73.851			
00:00:23	14.971	73.851			
00:00:23	14.361	73.851			
00:00:23	13.582	73.851			
00:00:23	12.874	73.851			
00:00:23	12.023	73.846			
00:00:23	11.069	73.846			
00:00:23	10.324	73.846			
00:00:23	9.426	73.846			
00:00:23	8.568	73.851			
00:00:23	7.753	73.851			
00:00:23	6.848	73.851			
00:00:23	6.314	73.851			
00:00:23	5.480	73.851			
00:00:23	4.595	73.851			
00:00:23	3.863	73.851			
00:00:23	2.891	73.851			
00:00:23	2.390	73.851			
00:00:23	1.727	73.851			
00:00:23	1.084	73.851			
00:00:23	0.861	73.851			
00:00:23	0.629	73.851			
00:00:23	0.481	73.851			
00:00:23	0.394	73.851			
00:00:23	0.508	73.851			
00:00:23	0.782	73.851			
00:00:23	0.862	73.851			
00:00:23	1.222	73.851			
00:00:23	1.580	73.851			
00:00:23	1.716	73.851			
00:00:23	1.950	73.851			
00:00:23	1.969	73.851			
00:00:23	2.072	73.851			
00:00:23	2.155	73.851			
00:00:23	1.946	73.851			
00:00:23	1.969	73.851			
00:00:23	1.884	73.851			
00:00:23	1.707	73.851			
00:00:23	1.542	73.851			
00:00:23	1.168	73.851			
00:00:23	1.025	73.851			
00:00:23	0.658	73.851			
00:00:23	0.311	73.851			
00:00:23	0.131	73.851			
00:00:23	-0.124	73.851			
00:00:23	-0.212	73.851			
00:00:23	-0.340	73.851			
00:00:23	-0.684	73.851			
00:00:23	-0.873	73.851			
00:00:23	-1.214	73.851			
00:00:23	-1.338	73.851			
00:00:23	-1.391	73.851			
00:00:23	-1.521	73.851			
00:00:23	-1.426	73.851			
00:00:23	-1.535	73.851			
00:00:23	-1.531	73.851			
00:00:23	-1.388	73.851			
00:00:23	-1.293	73.851			
00:00:23	-1.063	73.851			
00:00:23	-1.181	73.851			
00:00:23	-1.172	73.851			
00:00:23	-0.813	73.851			
00:00:23	-0.650	73.851			
00:00:23	-0.442	73.851			
00:00:23	-0.366	73.851			
00:00:23	-0.391	73.851			
00:00:23	-0.115	73.851			
00:00:23	-0.077	73.851			
00:00:23	0.056	73.851			
00:00:23	0.171	73.851			
00:00:23	0.219	73.851			
00:00:23	0.458	73.851			
00:00:23	0.365	73.851			
00:00:23	0.145	73.851			
00:00:23	0.124	73.851			
00:00:23	0.130	73.851			
00:00:23	0.229	73.851			
00:00:23	0.070	73.851			
00:00:23	-0.046	73.851			
00:00:23	0.067	73.851			
00:00:23	0.120	73.851			
00:00:23	0.197	73.851			
00:00:23	0.078	73.851			
00:00:23	-0.021	73.851			
00:00:23	-0.072	73.851			
00:00:23	-0.269	73.851			
00:00:23	-0.163	73.851			
00:00:23	0.019	73.851			
00:00:23	0.250	73.851			
00:00:23	0.900	73.851			
00:00:23	1.606	73.851			
00:00:23	2.849	73.851			
00:00:23	4.292	73.851			
00:00:23	5.700	73.851			
00:00:23	7.637	73.851			
00:00:23	9.506	73.851			
00:00:23	11.308	73.851			
00:00:23	12.990	73.851			
00:00:23	14.155	73.851			
00:00:23	15.306	73.851			
00:00:23	15.907	73.851			
00:00:23	16.290	73.851			
00:00:23	16.469	73.851			
00:00:23	16.249	73.851			
00:00:23	16.106	73.851			
00:00:24	15.610	73.851			
00:00:24	15.105	73.851			
00:00:24	14.646	73.851			
00:00:24	13.671	73.851			
00:00:24	12.793	73.851			
00:00:24	11.953	73.851			
00:00:24	11.201	73.851			
00:00:24	10.589	73.851			
00:00:24	9.703	72.453			
00:00:24	8.839	72.453			
00:00:24	7.959	72.453			
00:00:24	7.028	72.453			
00:00:24	6.438	72.458			
00:00:24	5.466	72.458			
00:00:24	4.515	72.458			
00:00:24	3.722	72.458			
00:00:24	2.773	72.458			
00:00:24	2.169	72.458			
00:00:24	1.438	72.458			
00:00:24	0.885	72.458			
00:00:24	0.608	72.458			
00:00:24	0.273	72.458			
00:00:24	0.143	72.458			
00:00:24	-0.023	72.458			
00:00:24	-0.004	72.458			
00:00:24	0.493	72.458			
00:00:24	0.626	72.458			
00:00:24	0.781	72.458			
00:00:24	1.126	72.458			
00:00:24	1.422	72.458			
00:00:24	1.686	72.458			
00:00:24	1.609	72.458			
00:00:24	1.696	72.458			
00:00:24	1.717	72.458			
00:00:24	1.546	72.458			
00:00:24	1.541	72.458			
00:00:24	1.415	72.458			
00:00:24	1.290	72.458			
00:00:24	1.243	72.458			
00:00:24	0.934	72.458			
00:00:24	0.868	72.458			
00:00:24	0.638	72.458			
00:00:24	0.371	72.458			
00:00:24	0.292	72.458			
00:00:24	-0.098	72.458			
00:00:24	-0.327	72.458			
00:00:24	-0.600	72.458			
00:00:24	-1.043	72.458			
00:00:24	-0.987	72.458			
00:00:24	-1.151	72.458			
00:00:24	-1.150	72.458			
00:00:24	-1.123	72.458			
00:00:24	-1.191	72.458			
00:00:24	-1.053	72.458			
00:00:24	-1.133	72.458			
00:00:24	-1.023	72.458			
00:00:24	-0.886	72.458			
00:00:24	-0.978	72.458			
00:00:24	-0.929	72.458			
00:00:24	-1.056	72.458			
00:00:24	-1.141	72.458			
00:00:24	-0.935	72.458			
00:00:24	-0.965	72.458			
00:00:24	-0.725	72.458			
00:00:24	-0.596	72.458			
00:00:24	-0.521	72.458			
00:00:24	-0.333	72.458			
00:00:24	-0.222	72.458			
00:00:24	0.106	72.458			
00:00:24	0.265	72.458			
00:00:24	0.238	72.458			
00:00:24	0.385	72.458			
00:00:24	0.285	72.458			
00:00:24	0.242	72.458			
00:00:24	0.298	72.458			
00:00:24	0.222	72.458			
00:00:24	0.281	72.458			
00:00:24	0.192	72.458			
00:00:24	0.271	72.458			
00:00:24	0.259	72.458			
00:00:24	-0.053	72.458			
00:00:24	0.023	72.458			
00:00:24	-0.071	72.458			
00:00:24	-0.184	72.458			
00:00:24	-0.208	72.458			
00:00:24	-0.270	72.458			
00:00:24	-0.134	72.458			
00:00:24	-0.076	72.458			
00:00:24	-0.010	72.458			
00:00:24	0.482	72.458			
00:00:24	1.044	72.458			
00:00:24	2.038	72.458			
00:00:24	3.243	72.458			
00:00:24	4.711	72.458			
00:00:24	6.657	72.458			
00:00:24	8.560	72.458			
00:00:24	10.333	72.458			
00:00:24	11.976	72.458			
00:00:24	13.430	72.458			
00:00:24	14.851	72.458			
00:00:24	15.777	72.458			
00:00:24	16.229	72.458			
00:00:24	16.451	72.458			
00:00:24	16.269	72.458			
00:00:24	16.238	72.458			
00:00:24	15.773	72.458			
00:00:24	15.193	72.458			
00:00:24	14.650	72.458			
00:00:24	13.796	72.458			
00:00:24	12.919	72.458			
00:00:24	11.959	72.458			
00:00:24	10.983	72.458			
00:00:24	10.209	72.453			
00:00:24	9.281	72.453			
00:00:24	8.557	72.453			
00:00:24	7.828	72.453			
00:00:24	6.921	72.458			
00:00:24	6.171	72.458			
00:00:24	5.142	72.458			
00:00:24	4.188	72.458			
00:00:24	3.387	72.458			
00:00:24	2.442	72.458			
00:00:24	1.671	72.458			
00:00:24	0.902	72.458			
00:00:24	0.360	72.458			
00:00:24	0.286	72.458			
00:00:24	0.083	72.458			
00:00:24	0.034	72.458			
00:00:25	-0.010	72.458			
00:00:25	0.274	72.458			
00:00:25	0.608	72.458			
00:00:25	0.561	72.458			
00:00:25	0.946	72.458			
00:00:25	1.309	72.458			
00:00:25	1.476	72.458			
00:00:25	1.863	72.458			
00:00:25	1.948	72.458			
00:00:25	2.116	72.458			
00:00:25	2.077	72.458			
00:00:25	1.847	72.458			
00:00:25	1.792	72.458			
00:00:25	1.569	72.458			
00:00:25	1.399	72.458			
00:00:25	1.326	72.458			
00:00:25	1.121	72.458			
00:00:25	1.038	72.458			
00:00:25	0.785	72.458			
00:00:25	0.491	72.458			
00:00:25	0.202	72.458			
00:00:25	-0.123	72.458			
00:00:25	-0.205	72.458			
00:00:25	-0.252	72.458			
00:00:25	-0.366	72.458			
00:00:25	-0.342	72.458			
00:00:25	-0.586	72.458			
00:00:25	-0.540	72.458			
00:00:25	-0.617	72.458			
00:00:25	-0.854	72.458			
00:00:25	-0.937	72.458			
00:00:25	-1.053	72.458			
00:00:25	-1.087	72.458			
00:00:25	-1.067	72.458			
00:00:25	-1.247	72.458			
00:00:25	-1.055	72.458			
00:00:25	-1.110	72.458			
00:00:25	-0.970	72.458			
00:00:25	-0.697	72.458			
00:00:25	-0.586	72.458			
00:00:25	-0.282	72.458			
00:00:25	-0.107	72.458			
00:00:25	0.034	72.458			
00:00:25	0.315	72.458			
00:00:25	0.306	72.458			
00:00:25	0.596	72.458			
00:00:25	0.639	72.458			
00:00:25	0.536	72.458			
00:00:25	0.752	72.458			
00:00:25	0.731	72.458			
00:00:25	0.812	72.458			
00:00:25	0.817	72.458			
00:00:25	0.731	72.458			
00:00:25	0.957	72.458			
00:00:25	0.761	72.458			
00:00:25	0.605	72.458			
00:00:25	0.511	72.458			
00:00:25	0.349	72.458			
00:00:25	0.353	72.458			
00:00:25	0.162	72.458			
00:00:25	0.124	72.458			
00:00:25	0.123	72.458			
00:00:25	-0.088	72.458			
00:00:25	0.194	72.458			
00:00:25	0.604	72.458			
00:00:25	1.266	72.458			
00:00:25	2.374	72.458			
00:00:25	3.462	72.458			
00:00:25	5.052	72.458			
00:00:25	6.709	72.458			
00:00:25	8.370	72.458			
00:00:25	10.164	72.458			
00:00:25	11.540	72.458			
00:00:25	12.945	72.458			
00:00:25	14.087	72.458			
00:00:25	14.834	72.458			
00:00:25	15.507	72.458			
00:00:25	15.702	72.458			
00:00:25	15.652	72.458			
00:00:25	15.540	72.458			
00:00:25	15.043	72.458			
00:00:25	14.473	72.458			
00:00:25	13.664	72.458			
00:00:25	12.812	72.458			
00:00:25	12.201	72.458			
00:00:25	11.372	72.458			
00:00:25	10.650	72.458			
00:00:25	9.777	72.458			
00:00:25	8.958	74.563			
00:00:25	8.301	74.563			
00:00:25	7.463	74.563			
00:00:25	6.727	74.563			
00:00:25	5.859	74.568			
00:00:25	4.924	74.568			
00:00:25	4.259	74.568			
00:00:25	3.399	74.568			
00:00:25	2.659	74.568			
00:00:25	1.897	74.568			
00:00:25	1.163	74.568			
00:00:25	0.781	74.568			
00:00:25	0.255	74.568			
00:00:25	0.148	74.568			
00:00:25	0.171	74.568			
00:00:25	0.090	74.568			
00:00:25	0.354	74.568			
00:00:25	0.545	74.568			
00:00:25	0.794	74.568			
00:00:25	1.111	74.568			
00:00:25	1.106	74.568			
00:00:25	1.371	74.568			
00:00:25	1.598	74.568			
00:00:25	1.702	74.568			
00:00:25	1.966	74.568			
00:00:25	1.949	74.568			
00:00:25	1.913	74.568			
00:00:25	1.839	74.568			
00:00:25	1.547	74.568			
00:00:25	1.509	74.568			
00:00:25	1.315	74.568			
00:00:25	1.297	74.568			
00:00:25	1.212	74.568			
00:00:25	0.855	74.568			
00:00:25	0.835	74.568			
00:00:25	0.493	74.568			
00:00:25	0.325	74.568			
00:00:25	0.233	74.568			
00:00:25	-0.068	74.568			
00:00:25	-0.291	74.568			
00:00:26	-0.580	74.568			
00:00:26	-0.771	74.568			
00:00:26	-0.701	74.568			
00:00:26	-0.881	74.568			
00:00:26	-0.857	74.568			
00:00:26	-0.881	74.568			
00:00:26	-1.173	74.568			
00:00:26	-1.188	74.568			
00:00:26	-1.366	74.568			
00:00:26	-1.165	74.568			
00:00:26	-0.921	74.568			
00:00:26	-0.848	74.568			
00:00:26	-0.655	74.568			
00:00:26	-0.687	74.568			
00:00:26	-0.570	74.568			
00:00:26	-0.501	74.568			
00:00:26	-0.513	74.568			
00:00:26	-0.312	74.568			
00:00:26	-0.261	74.568			
00:00:26	-0.062	74.568			
00:00:26	0.133	74.568			
00:00:26	0.059	74.568			
00:00:26	0.176	74.568			
00:00:26	0.283	74.568			
00:00:26	0.326	74.568			
00:00:26	0.395	74.568			
00:00:26	0.322	74.568			
00:00:26	0.448	74.568			
00:00:26	0.553	74.568			
00:00:26	0.541	74.568			
00:00:26	0.731	74.568			
00:00:26	0.700	74.568			
00:00:26	0.577	74.568			
00:00:26	0.316	74.568			
00:00:26	0.027	74.568			
00:00:26	0.020	74.568			
00:00:26	-0.129	74.568			
00:00:26	-0.215	74.568			
00:00:26	-0.148	74.568			
00:00:26	0.097	74.568			
00:00:26	0.863	74.568			
00:00:26	1.816	74.568			
00:00:26	3.104	74.568			
00:00:26	4.882	74.568			
00:00:26	6.554	74.568			
00:00:26	8.471	74.568			
00:00:26	10.136	74.568			
00:00:26	11.626	74.568			
00:00:26	13.201	74.568			
00:00:26	14.321	74.568			
00:00:26	15.437	74.568			
00:00:26	16.124	74.568			
00:00:26	16.461	74.568			
00:00:26	16.697	74.568			
00:00:26	16.425	74.568			
00:00:26	16.024	74.568			
00:00:26	15.539	74.568			
00:00:26	14.730	74.568			
00:00:26	14.103	74.568			
00:00:26	13.249	74.568			
00:00:26	12.444	74.568			
00:00:26	11.557	74.568			
00:00:26	10.478	74.568			
00:00:26	9.695	74.568			
00:00:26	8.851	74.563			
00:00:26	8.100	74.563			
00:00:26	7.531	74.563			
00:00:26	6.699	74.563			
00:00:26	6.035	74.568			
00:00:26	5.241	74.568			
00:00:26	4.470	74.568			
00:00:26	3.865	74.568			
00:00:26	3.052	74.568			
00:00:26	2.545	74.568			
00:00:26	2.057	74.568			
00:00:26	1.366	74.568			
00:00:26	0.974	74.568			
00:00:26	0.622	74.568			
00:00:26	0.423	74.568			
00:00:26	0.436	74.568			
00:00:26	0.369	74.568			
00:00:26	0.619	74.568			
00:00:26	0.766	74.568			
00:00:26	0.880	74.568			
00:00:26	1.162	74.568			
00:00:26	1.228	74.568			
00:00:26	1.524	74.568			
00:00:26	1.623	74.568			
00:00:26	1.550	74.568			
00:00:26	1.542	74.568			
00:00:26	1.460	74.568			
00:00:26	1.502	74.568			
00:00:26	1.441	74.568			
00:00:26	1.209	74.568			
00:00:26	1.172	74.568			
00:00:26	0.764	74.568			
00:00:26	0.634	74.568			
00:00:26	0.681	74.568			
00:00:26	0.540	74.568			
00:00:26	0.560	74.568			
00:00:26	0.232	74.568			
00:00:26	-0.008	74.568			
00:00:26	-0.008	74.568			
00:00:26	-0.219	74.568			
00:00:26	-0.449	74.568			
00:00:26	-0.822	74.568			
00:00:26	-0.980	74.568			
00:00:26	-0.854	74.568			
00:00:26	-1.126	74.568			
00:00:26	-1.129	74.568			
00:00:26	-1.238	74.568			
00:00:26	-1.269	74.568			
00:00:26	-1.166	74.568			
00:00:26	-1.363	74.568			
00:00:26	-1.319	74.568			
00:00:26	-1.258	74.568			
00:00:26	-1.311	74.568			
00:00:26	-1.075	74.568			
00:00:26	-1.006	74.568			
00:00:26	-0.838	74.568			
00:00:26	-0.569	74.568			
00:00:26	-0.535	74.568			
00:00:26	-0.135	74.568			
00:00:26	0.121	74.568			
00:00:26	0.322	74.568			
00:00:26	0.498	74.568			
00:00:26	0.434	74.568			
00:00:26	0.621	74.568			
00:00:27	0.700	74.568			
00:00:27	0.655	74.568			
00:00:27	0.757	74.568			
00:00:27	0.722	74.568			
00:00:27	0.848	74.568			
00:00:27	0.706	74.568			
00:00:27	0.418	74.568			
00:00:27	0.380	74.568			
00:00:27	0.066	74.568			
00:00:27	0.049	74.568			
00:00:27	0.086	74.568			
00:00:27	-0.090	74.568			
00:00:27	0.023	74.568			
00:00:27	-0.087	74.568			
00:00:27	-0.152	74.568			
00:00:27	-0.064	74.568			
00:00:27	0.138	74.568			
00:00:27	0.822	74.568			
00:00:27	1.761	74.568			
00:00:27	3.170	74.568			
00:00:27	4.882	74.568			
00:00:27	6.586	74.568			
00:00:27	8.590	74.568			
00:00:27	10.418	74.568			
00:00:27	11.959	74.568			
00:00:27	13.473	74.568			
00:00:27	14.672	74.568			
00:00:27	15.577	74.568			
00:00:27	16.054	74.568			
00:00:27	16.322	74.568			
00:00:27	16.502	74.568			
00:00:27	16.269	74.568			
00:00:27	15.969	74.568			
00:00:27	15.402	74.568			
00:00:27	14.625	74.568			
00:00:27	14.050	74.568			
00:00:27	13.098	74.568			
00:00:27	12.075	74.568			
00:00:27	11.204	74.568			
00:00:27	10.388	74.568			
00:00:27	9.747	73.143			
00:00:27	8.966	73.143			
00:00:27	8.168	73.143			
00:00:27	7.506	73.143			
00:00:27	6.658	73.148			
00:00:27	5.997	73.148			
00:00:27	5.250	73.148			
00:00:27	4.278	73.148			
00:00:27	3.472	73.148			
00:00:27	2.709	73.148			
00:00:27	2.192	73.148			
00:00:27	1.668	73.148			
00:00:27	1.116	73.148			
00:00:27	0.826	73.148			
00:00:27	0.546	73.148			
00:00:27	0.439	73.148			
00:00:27	0.330	73.148			
00:00:27	0.165	73.148			
00:00:27	0.374	73.148			
00:00:27	0.466	73.148			
00:00:27	0.595	73.148			
00:00:27	0.912	73.148			
00:00:27	1.124	73.148			
00:00:27	1.418	73.148			
00:00:27	1.530	73.148			
00:00:27	1.570	73.148			
00:00:27	1.661	73.148			
00:00:27	1.495	73.148			
00:00:27	1.502	73.148			
00:00:27	1.369	73.148			
00:00:27	1.101	73.148			
00:00:27	1.094	73.148			
00:00:27	0.795	73.148			
00:00:27	0.739	73.148			
00:00:27	0.593	73.148			
00:00:27	0.329	73.148			
00:00:27	0.255	73.148			
00:00:27	-0.034	73.148			
00:00:27	-0.404	73.148			
00:00:27	-0.572	73.148			
00:00:27	-0.737	73.148			
00:00:27	-0.820	73.148			
00:00:27	-1.058	73.148			
00:00:27	-1.187	73.148			
00:00:27	-1.189	73.148			
00:00:27	-1.372	73.148			
00:00:27	-1.290	73.148			
00:00:27	-1.226	73.148			
00:00:27	-1.204	73.148			
00:00:27	-1.115	73.148			
00:00:27	-1.272	73.148			
00:00:27	-1.115	73.148			
00:00:27	-1.036	73.148			
00:00:27	-1.140	73.148			
00:00:27	-0.905	73.148			
00:00:27	-0.864	73.148			
00:00:27	-0.732	73.148			
00:00:27	-0.483	73.148			
00:00:27	-0.342	73.148			
00:00:27	-0.146	73.148			
00:00:27	-0.194	73.148			
00:00:27	-0.033	73.148			
00:00:27	0.251	73.148			
00:00:27	0.319	73.148			
00:00:27	0.437	73.148			
00:00:27	0.426	73.148			
00:00:27	0.361	73.148			
00:00:27	0.409	73.148			
00:00:27	0.245	73.148			
00:00:27	0.366	73.148			
00:00:27	0.319	73.148			
00:00:27	0.134	73.148			
00:00:27	0.015	73.148			
00:00:27	-0.172	73.148			
00:00:27	-0.217	73.148			
00:00:27	-0.254	73.148			
00:00:27	-0.355	73.148			
00:00:27	-0.305	73.148			
00:00:27	-0.311	73.148			
00:00:27	-0.174	73.148			
00:00:27	0.028	73.148			
00:00:27	0.012	73.148			
00:00:27	0.502	73.148			
00:00:27	1.132	73.148			
00:00:27	2.138	73.148			
00:00:27	3.319	73.148			
00:00:27	4.537	73.148			
00:00:27	6.291	73.148			
00:00:28	7.961	73.148			
00:00:28	9.643	73.148			
00:00:28	11.533	73.148			
00:00:28	12.954	73.148			
00:00:28	14.366	73.148			
00:00:28	15.326	73.148			
00:00:28	15.745	73.148			
00:00:28	16.078	73.148			
00:00:28	15.892	73.148			
00:00:28	15.676	73.148			
00:00:28	15.194	73.148			
00:00:28	14.439	73.148			
00:00:28	13.842	73.148			
00:00:28	13.138	73.148			
00:00:28	12.409	73.148			
00:00:28	11.578	73.148			
00:00:28	10.682	73.143			
00:00:28	10.020	73.143			
00:00:28	9.325	73.143			
00:00:28	8.624	73.143			
00:00:28	7.936	73.148			
00:00:28	7.023	73.148			
00:00:28	6.485	73.148			
00:00:28	5.872	73.148			
00:00:28	5.033	73.148			
00:00:28	4.237	73.148			
00:00:28	3.098	73.148			
00:00:28	2.303	73.148			
00:00:28	1.739	73.148			
00:00:28	1.053	73.148			
00:00:28	0.725	73.148			
00:00:28	0.333	73.148			
00:00:28	0.130	73.148			
00:00:28	0.048	73.148			
00:00:28	-0.068	73.148			
00:00:28	0.201	73.148			
00:00:28	0.354	73.148			
00:00:28	0.457	73.148			
00:00:28	0.722	73.148			
00:00:28	0.826	73.148			
00:00:28	1.073	73.148			
00:00:28	1.270	73.148			
00:00:28	1.374	73.148			
00:00:28	1.586	73.148			
00:00:28	1.624	73.148			
00:00:28	1.714	73.148			
00:00:28	1.744	73.148			
00:00:28	1.572	73.148			
00:00:28	1.502	73.148			
00:00:28	1.200	73.148			
00:00:28	0.996	73.148			
00:00:28	0.818	73.148			
00:00:28	0.495	73.148			
00:00:28	0.295	73.148			
00:00:28	0.031	73.148			
00:00:28	0.060	73.148			
00:00:28	-0.032	73.148			
00:00:28	-0.390	73.148			
00:00:28	-0.501	73.148			
00:00:28	-0.790	73.148			
00:00:28	-1.008	73.148			
00:00:28	-1.166	73.148			
00:00:28	-1.359	73.148			
00:00:28	-1.280	73.148			
00:00:28	-1.276	73.148			
00:00:28	-1.088	73.148			
00:00:28	-0.903	73.148			
00:00:28	-1.097	73.148			
00:00:28	-1.086	73.148			
00:00:28	-0.997	73.148			
00:00:28	-0.920	73.148			
00:00:28	-0.664	73.148			
00:00:28	-0.763	73.148			
00:00:28	-0.736	73.148			
00:00:28	-0.557	73.148			
00:00:28	-0.457	73.148			
00:00:28	-0.275	73.148			
00:00:28	-0.216	73.148			
00:00:28	-0.021	73.148			
00:00:28	0.095	73.148			
00:00:28	0.097	73.148			
00:00:28	0.342	73.148			
00:00:28	0.424	73.148			
00:00:28	0.398	73.148			
00:00:28	0.399	73.148			
00:00:28	0.267	73.148			
00:00:28	0.335	73.148			
00:00:28	0.287	73.148			
00:00:28	0.138	73.148			
00:00:28	0.107	73.148			
00:00:28	-0.129	73.148			
00:00:28	-0.015	73.148			
00:00:28	-0.069	73.148			
00:00:28	-0.145	73.148			
00:00:28	-0.095	73.148			
00:00:28	-0.178	73.148			
00:00:28	-0.052	73.148			
00:00:28	0.005	73.148			
00:00:28	0.064	73.148			
00:00:28	0.420	73.148			
00:00:28	0.851	73.148			
00:00:28	1.702	73.148			
00:00:28	2.907	73.148			
00:00:28	4.167	73.148			
00:00:28	6.035	73.148			
00:00:28	7.681	73.148			
00:00:28	9.299	73.148			
00:00:28	10.975	73.148			
00:00:28	12.366	73.148			
00:00:28	13.642	73.148			
00:00:28	14.468	73.148			
00:00:28	14.987	73.148			
00:00:28	15.440	73.148			
00:00:28	15.327	73.148			
00:00:28	15.009	73.148			
00:00:28	14.538	73.148			
00:00:28	13.952	73.148			
00:00:28	13.472	73.148			
00:00:28	12.604	73.148			
00:00:28	11.907	73.148			
00:00:28	11.149	73.143			
00:00:28	10.112	73.143			
00:00:28	9.363	73.143			
00:00:28	8.454	73.143			
00:00:28	7.765	73.148			
00:00:28	7.149	73.148			
00:00:28	6.292	73.148			
00:00:28	5.759	73.148			
00:00:29	4.843	73.148			
00:00:29	3.902	73.148			
00:00:29	3.098	73.148			
00:00:29	2.159	73.148			
00:00:29	1.657	73.148			
00:00:29	1.144	73.148			
00:00:29	0.448	73.148			
00:00:29	0.089	73.148			
00:00:29	-0.206	73.148			
00:00:29	-0.173	73.148			
00:00:29	-0.123	73.148			
00:00:29	-0.111	73.148			
00:00:29	0.088	73.148			
00:00:29	0.299	73.148			
00:00:29	0.634	73.148			
00:00:29	0.910	73.148			
00:00:29	0.973	73.148			
00:00:29	1.456	73.148			
00:00:29	1.677	73.148			
00:00:29	1.805	73.148			
00:00:29	1.919	73.148			
00:00:29	1.746	73.148			
00:00:29	1.762	73.148			
00:00:29	1.528	73.148			
00:00:29	1.316	73.148			
00:00:29	1.215	73.148			
00:00:29	0.926	73.148			
00:00:29	0.754	73.148			
00:00:29	0.454	73.148			
00:00:29	0.140	73.148			
00:00:29	0.113	73.148			
00:00:29	-0.216	73.148			
00:00:29	-0.357	73.148			
00:00:29	-0.478	73.148			
00:00:29	-0.683	73.148			
00:00:29	-0.711	73.148			
00:00:29	-0.860	73.148			
00:00:29	-0.853	73.148			
00:00:29	-0.855	73.148			
00:00:29	-0.984	73.148			
00:00:29	-0.915	73.148			
00:00:29	-0.873	73.148			
00:00:29	-0.792	73.148			
00:00:29	-0.820	73.148			
00:00:29	-0.972	73.148			
00:00:29	-0.838	73.148			
00:00:29	-0.716	73.148			
00:00:29	-0.654	73.148			
00:00:29	-0.425	73.148			
00:00:29	-0.519	73.148			
00:00:29	-0.390	73.148			
00:00:29	-0.275	73.148			
00:00:29	-0.209	73.148			
00:00:29	0.103	73.148			
00:00:29	-0.010	73.148			
00:00:29	0.064	73.148			
00:00:29	0.201	73.148			
00:00:29	0.216	73.148			
00:00:29	0.237	73.148			
00:00:29	0.115	73.148			
00:00:29	0.265	73.148			
00:00:29	0.393	73.148			
00:00:29	0.215	73.148			
00:00:29	0.171	73.148			
00:00:29	-0.040	73.148			
00:00:29	-0.046	73.148			
00:00:29	0.103	73.148			
00:00:29	-0.033	73.148			
00:00:29	0.024	73.148			
00:00:29	0.022	73.148			
00:00:29	0.042	73.148			
00:00:29	0.245	73.148			
00:00:29	0.264	73.148			
00:00:29	0.633	73.148			
00:00:29	1.110	73.148			
00:00:29	1.904	73.148			
00:00:29	3.241	73.148			
00:00:29	4.631	73.148			
00:00:29	6.148	73.148			
00:00:29	7.725	73.148			
00:00:29	9.281	73.148			
00:00:29	11.041	73.148			
00:00:29	12.382	73.148			
00:00:29	13.495	73.148			
00:00:29	14.420	73.148			
00:00:29	15.021	73.148			
00:00:29	15.493	73.148			
00:00:29	15.285	73.148			
00:00:29	15.061	73.148			
00:00:29	14.760	73.148			
00:00:29	14.195	73.148			
00:00:29	13.598	73.148			
00:00:29	12.792	73.148			
00:00:29	11.890	73.148			
00:00:29	11.196	73.148			
00:00:29	10.315	73.148			
00:00:29	9.543	74.563			
00:00:29	8.860	74.563			
00:00:29	8.223	74.563			
00:00:29	7.674	74.563			
00:00:29	6.943	74.568			
00:00:29	6.209	74.568			
00:00:29	5.409	74.568			
00:00:29	4.429	74.568			
00:00:29	3.704	74.568			
00:00:29	2.786	74.568			
00:00:29	2.094	74.568			
00:00:29	1.619	74.568			
00:00:29	0.957	74.568			
00:00:29	0.454	74.568			
00:00:29	-0.056	74.568			
00:00:29	-0.204	74.568			
00:00:29	-0.233	74.568			
00:00:29	-0.471	74.568			
00:00:29	-0.331	74.568			
00:00:29	-0.087	74.568			
00:00:29	0.232	74.568			
00:00:29	0.723	74.568			
00:00:29	0.894	74.568			
00:00:29	1.229	74.568			
00:00:29	1.501	74.568			
00:00:29	1.640	74.568			
00:00:29	1.849	74.568			
00:00:29	1.726	74.568			
00:00:29	1.765	74.568			
00:00:29	1.750	74.568			
00:00:29	1.632	74.568			
00:00:29	1.587	74.568			
00:00:30	1.207	74.568			
00:00:30	0.936	74.568			
00:00:30	0.849	74.568			
00:00:30	0.573	74.568			
00:00:30	0.305	74.568			
00:00:30	-0.091	74.568			
00:00:30	-0.393	74.568			
00:00:30	-0.593	74.568			
00:00:30	-1.072	74.568			
00:00:30	-1.217	74.568			
00:00:30	-1.208	74.568			
00:00:30	-1.301	74.568			
00:00:30	-1.158	74.568			
00:00:30	-1.179	74.568			
00:00:30	-1.044	74.568			
00:00:30	-0.924	74.568			
00:00:30	-1.017	74.568			
00:00:30	-0.915	74.568			
00:00:30	-1.057	74.568			
00:00:30	-0.993	74.568			
00:00:30	-0.829	74.568			
00:00:30	-0.945	74.568			
00:00:30	-0.815	74.568			
00:00:30	-0.738	74.568			
00:00:30	-0.693	74.568			
00:00:30	-0.559	74.568			
00:00:30	-0.644	74.568			
00:00:30	-0.405	74.568			
00:00:30	-0.242	74.568			
00:00:30	-0.292	74.568			
00:00:30	0.099	74.568			
00:00:30	0.309	74.568			
00:00:30	0.597	74.568			
00:00:30	0.611	74.568			
00:00:30	0.448	74.568			
00:00:30	0.545	74.568			
00:00:30	0.369	74.568			
00:00:30	0.284	74.568			
00:00:30	0.272	74.568			
00:00:30	0.209	74.568			
00:00:30	0.340	74.568			
00:00:30	0.201	74.568			
00:00:30	0.021	74.568			
00:00:30	-0.097	74.568			
00:00:30	-0.298	74.568			
00:00:30	-0.316	74.568			
00:00:30	-0.358	74.568			
00:00:30	-0.174	74.568			
00:00:30	0.242	74.568			
00:00:30	0.675	74.568			
00:00:30	1.500	74.568			
00:00:30	2.435	74.568			
00:00:30	3.550	74.568			
00:00:30	5.246	74.568			
00:00:30	6.886	74.568			
00:00:30	8.670	74.568			
00:00:30	10.425	74.568			
00:00:30	11.903	74.568			
00:00:30	13.287	74.568			
00:00:30	14.291	74.568			
00:00:30	15.109	74.568			
00:00:30	15.560	74.568			
00:00:30	15.634	74.568			
00:00:30	15.740	74.568			
00:00:30	15.379	74.568			
00:00:30	14.948	74.568			
00:00:30	14.487	74.568			
00:00:30	13.683	74.568			
00:00:30	13.150	74.568			
00:00:30	12.399	74.568			
00:00:30	11.583	74.568			
00:00:30	10.737	74.568			
00:00:30	9.818	73.846			
00:00:30	9.195	73.846			
00:00:30	8.522	73.846			
00:00:30	7.613	73.846			
00:00:30	6.882	73.851			
00:00:30	5.898	73.851			
00:00:30	5.184	73.851			
00:00:30	4.598	73.851			
00:00:30	3.683	73.851			
00:00:30	3.052	73.851			
00:00:30	2.301	73.851			
00:00:30	1.622	73.851			
00:00:30	1.036	73.851			
00:00:30	0.425	73.851			
00:00:30	0.204	73.851			
00:00:30	0.111	73.851			
00:00:30	0.080	73.851			
00:00:30	0.163	73.851			
00:00:30	0.084	73.851			
00:00:30	0.270	73.851			
00:00:30	0.404	73.851			
00:00:30	0.673	73.851			
00:00:30	0.973	73.851			
00:00:30	1.033	73.851			
00:00:30	1.179	73.851			
00:00:30	1.279	73.851			
00:00:30	1.414	73.851			
00:00:30	1.579	73.851			
00:00:30	1.579	73.851			
00:00:30	1.619	73.851			
00:00:30	1.433	73.851			
00:00:30	1.042	73.851			
00:00:30	0.892	73.851			
00:00:30	0.552	73.851			
00:00:30	0.453	73.851			
00:00:30	0.307	73.851			
00:00:30	-0.156	73.851			
00:00:30	-0.325	73.851			
00:00:30	-0.533	73.851			
00:00:30	-0.729	73.851			
00:00:30	-0.886	73.851			
00:00:30	-1.081	73.851			
00:00:30	-0.952	73.851			
00:00:30	-0.968	73.851			
00:00:30	-1.004	73.851			
00:00:30	-0.714	73.851			
00:00:30	-0.802	73.851			
00:00:30	-0.819	73.851			
00:00:30	-0.798	73.851			
00:00:30	-0.758	73.851			
00:00:30	-0.580	73.851			
00:00:30	-0.623	73.851			
00:00:30	-0.672	73.851			
00:00:30	-0.846	73.851			
00:00:30	-1.198	73.851			
00:00:30	-1.024	73.851			
00:00:31	-0.977	73.851			
00:00:31	-0.854	73.851			
00:00:31	-0.680	73.851			
00:00:31	-0.699	73.851			
00:00:31	-0.454	73.851			
00:00:31	-0.486	73.851			
00:00:31	-0.387	73.851			
00:00:31	-0.053	73.851			
00:00:31	-0.116	73.851			
00:00:31	-0.076	73.851			
00:00:31	-0.060	73.851			
00:00:31	-0.078	73.851			
00:00:31	0.090	73.851			
00:00:31	-0.144	73.851			
00:00:31	-0.041	73.851			
00:00:31	0.041	73.851			
00:00:31	0.046	73.851			
00:00:31	0.190	73.851			
00:00:31	-0.043	73.851			
00:00:31	-0.235	73.851			
00:00:31	-0.342	73.851			
00:00:31	-0.468	73.851			
00:00:31	-0.336	73.851			
00:00:31	-0.472	73.851			
00:00:31	-0.352	73.851			
00:00:31	0.242	73.851			
00:00:31	0.943	73.851			
00:00:31	2.074	73.851			
00:00:31	3.227	73.851			
00:00:31	4.572	73.851			
00:00:31	6.480	73.851			
00:00:31	8.085	73.851			
00:00:31	9.901	73.851			
00:00:31	11.608	73.851			
00:00:31	12.976	73.851			
00:00:31	14.184	73.851			
00:00:31	14.895	73.851			
00:00:31	15.465	73.851			
00:00:31	15.631	73.851			
00:00:31	15.543	73.851			
00:00:31	15.478	73.851			
00:00:31	15.016	73.851			
00:00:31	14.356	73.851			
00:00:31	13.721	73.851			
00:00:31	12.769	73.851			
00:00:31	12.077	73.851			
00:00:31	11.084	73.851			
00:00:31	10.194	73.851			
00:00:31	9.532	74.563			
00:00:31	8.722	74.563			
00:00:31	8.004	74.563			
00:00:31	7.111	74.563			
00:00:31	6.243	74.568			
00:00:31	5.804	74.568			
00:00:31	4.926	74.568			
00:00:31	4.280	74.568			
00:00:31	3.459	74.568			
00:00:31	2.451	74.568			
00:00:31	1.730	74.568			
00:00:31	0.853	74.568			
00:00:31	0.261	74.568			
00:00:31	-0.187	74.568			
00:00:31	-0.655	74.568			
00:00:31	-0.869	74.568			
00:00:31	-1.126	74.568			
00:00:31	-1.044	74.568			
00:00:31	-0.836	74.568			
00:00:31	-0.821	74.568			
00:00:31	-0.442	74.568			
00:00:31	-0.240	74.568			
00:00:31	0.048	74.568			
00:00:31	0.445	74.568			
00:00:31	0.532	74.568			
00:00:31	0.876	74.568			
00:00:31	1.113	74.568			
00:00:31	1.133	74.568			
00:00:31	1.316	74.568			
00:00:31	1.276	74.568			
00:00:31	1.294	74.568			
00:00:31	1.366	74.568			
00:00:31	1.196	74.568			
00:00:31	1.188	74.568			
00:00:31	0.957	74.568			
00:00:31	0.741	74.568			
00:00:31	0.624	74.568			
00:00:31	0.168	74.568			
00:00:31	0.079	74.568			
00:00:31	-0.142	74.568			
00:00:31	-0.223	74.568			
00:00:31	-0.297	74.568			
00:00:31	-0.497	74.568			
00:00:31	-0.486	74.568			
00:00:31	-0.544	74.568			
00:00:31	-0.556	74.568			
00:00:31	-0.464	74.568			
00:00:31	-0.737	74.568			
00:00:31	-0.881	74.568			
00:00:31	-0.930	74.568			
00:00:31	-1.121	74.568			
00:00:31	-0.983	74.568			
00:00:31	-1.110	74.568			
00:00:31	-1.095	74.568			
00:00:31	-1.251	74.568			
00:00:31	-1.344	74.568			
00:00:31	-1.078	74.568			
00:00:31	-0.940	74.568			
00:00:31	-0.846	74.568			
00:00:31	-0.641	74.568			
00:00:31	-0.618	74.568			
00:00:31	-0.400	74.568			
00:00:31	-0.374	74.568			
00:00:31	-0.306	74.568			
00:00:31	-0.192	74.568			
00:00:31	-0.271	74.568			
00:00:31	-0.047	74.568			
00:00:31	-0.071	74.568			
00:00:31	-0.061	74.568			
00:00:31	0.222	74.568			
00:00:31	0.278	74.568			
00:00:31	0.446	74.568			
00:00:31	0.435	74.568			
00:00:31	0.234	74.568			
00:00:31	0.228	74.568			
00:00:31	0.086	74.568			
00:00:31	0.125	74.568			
00:00:31	0.344	74.568			
00:00:31	0.668	74.568			
00:00:31	1.400	74.568			
00:00:32	2.198	73.851			
00:00:32	3.335	73.851			
00:00:32	4.911	73.851			
00:00:32	6.383	73.851			
00:00:32	8.097	73.851			
00:00:32	9.526	73.851			
00:00:32	11.010	73.851			
00:00:32	12.334	73.851			
00:00:32	13.177	73.851			
00:00:32	13.870	73.851			
00:00:32	14.328	73.851			
00:00:32	14.462	73.851			
00:00:32	14.442	73.851			
00:00:32	13.900	73.851			
00:00:32	13.352	73.851			
00:00:32	12.773	73.851			
00:00:32	11.966	73.851			
00:00:32	11.469	73.851			
00:00:32	10.753	73.851			
00:00:32	10.015	73.851			
00:00:32	9.102	91.783			
00:00:32	8.181	91.783			
00:00:32	7.548	91.783			
00:00:32	6.789	91.783			
00:00:32	6.179	91.783			
00:00:32	5.441	91.783			
00:00:32	4.544	91.783			
00:00:32	3.830	91.783			
00:00:32	2.862	91.783			
00:00:32	2.008	91.783			
00:00:32	1.431	91.783			
00:00:32	0.677	91.783			
00:00:32	0.272	91.783			
00:00:32	-0.153	91.783			
00:00:32	-0.557	91.783			
00:00:32	-0.571	91.783			
00:00:32	-0.701	91.783			
00:00:32	-0.462	91.783			
00:00:32	-0.195	91.783			
00:00:32	0.034	91.783			
00:00:32	0.520	91.783			
00:00:32	0.726	91.783			
00:00:32	1.111	91.783			
00:00:32	1.462	91.783			
00:00:32	1.638	91.783			
00:00:32	1.925	91.783			
00:00:32	1.985	91.783			
00:00:32	1.986	91.783			
00:00:32	2.060	91.783			
00:00:32	1.889	91.783			
00:00:32	1.909	91.783			
00:00:32	1.494	91.783			
00:00:32	1.039	91.783			
00:00:32	0.872	91.783			
00:00:32	0.598	91.783			
00:00:32	0.473	91.783			
00:00:32	0.136	91.783			
00:00:32	-0.180	91.783			
00:00:32	-0.308	91.783			
00:00:32	-0.544	91.783			
00:00:32	-0.732	91.783			
00:00:32	-0.983	91.783			
00:00:32	-1.211	91.783			
00:00:32	-1.155	91.783			
00:00:32	-1.292	91.783			
00:00:32	-1.262	91.783			
00:00:32	-1.208	91.783			
00:00:32	-1.299	91.783			
00:00:32	-1.001	91.783			
00:00:32	-0.940	91.783			
00:00:32	-0.952	91.783			
00:00:32	-0.711	91.783			
00:00:32	-0.853	91.783			
00:00:32	-0.717	91.783			
00:00:32	-0.636	91.783			
00:00:32	-0.610	91.783			
00:00:32	-0.468	91.783			
00:00:32	-0.561	91.783			
00:00:32	-0.389	91.783			
00:00:32	-0.353	91.783			
00:00:32	-0.474	91.783			
00:00:32	-0.264	91.783			
00:00:32	-0.392	91.783			
00:00:32	-0.427	91.783			
00:00:32	-0.352	91.783			
00:00:32	-0.415	91.783			
00:00:32	-0.270	91.783			
00:00:32	-0.229	91.783			
00:00:32	-0.264	91.783			
00:00:32	-0.338	91.783			
00:00:32	-0.389	91.783			
00:00:32	-0.177	91.783			
00:00:32	-0.057	91.783			
00:00:32	0.117	91.783			
00:00:32	0.557	91.783			
00:00:32	0.976	91.783			
00:00:32	1.807	91.783			
00:00:32	2.866	91.783			
00:00:32	4.213	91.783			
00:00:32	5.806	91.783			
00:00:32	7.076	91.783			
00:00:32	8.504	91.783			
00:00:32	9.896	91.783			
00:00:32	11.045	91.783			
00:00:32	12.255	91.783			
00:00:32	13.029	91.783			
00:00:32	13.651	91.783			
00:00:32	14.085	91.783			
00:00:32	13.920	91.783			
00:00:32	13.959	91.783			
00:00:32	13.586	91.783			
00:00:32	13.062	91.783			
00:00:32	12.419	91.783			
00:00:32	11.468	91.783			
00:00:32	10.851	91.783			
00:00:32	10.160	91.783			
00:00:32	9.456	79.175			
00:00:32	8.898	79.175			
00:00:32	8.103	79.175			
00:00:32	7.650	79.175			
00:00:32	6.976	79.180			
00:00:32	6.323	79.180			
00:00:32	5.684	79.180			
00:00:32	4.730	79.180			
00:00:32	3.932	79.180			
00:00:32	3.142	79.180			
00:00:32	2.156	79.180			
00:00:32	1.540	79.180			
00:00:33	0.889	79.180			
00:00:33	0.408	79.180			
00:00:33	-0.065	79.180			
00:00:33	-0.593	79.180			
00:00:33	-0.651	79.180			
00:00:33	-0.766	79.180			
00:00:33	-0.864	79.180			
00:00:33	-0.538	79.180			
00:00:33	-0.320	79.180			
00:00:33	0.104	79.180			
00:00:33	0.280	79.180			
00:00:33	0.417	79.180			
00:00:33	0.777	79.180			
00:00:33	0.957	79.180			
00:00:33	1.178	79.180			
00:00:33	1.243	79.180			
00:00:33	1.176	79.180			
00:00:33	1.173	79.180			
00:00:33	0.801	79.180			
00:00:33	0.721	79.180			
00:00:33	0.733	79.180			
00:00:33	0.410	79.180			
00:00:33	0.216	79.180			
00:00:33	-0.109	79.180			
00:00:33	-0.305	79.180			
00:00:33	-0.365	79.180			
00:00:33	-0.638	79.180			
00:00:33	-0.750	79.180			
00:00:33	-0.891	79.180			
00:00:33	-1.037	79.180			
00:00:33	-1.166	79.180			
00:00:33	-1.553	79.180			
00:00:33	-1.556	79.180			
00:00:33	-1.583	79.180			
00:00:33	-1.671	79.180			
00:00:33	-1.557	79.180			
00:00:33	-1.591	79.180			
00:00:33	-1.495	79.180			
00:00:33	-1.620	79.180			
00:00:33	-1.633	79.180			
00:00:33	-1.286	79.180			
00:00:33	-1.056	79.180			
00:00:33	-0.891	79.180			
00:00:33	-0.693	79.180			
00:00:33	-0.695	79.180			
00:00:33	-0.546	79.180			
00:00:33	-0.637	79.180			
00:00:33	-0.649	79.180			
00:00:33	-0.488	79.180			
00:00:33	-0.520	79.180			
00:00:33	-0.338	79.180			
00:00:33	-0.533	79.180			
00:00:33	-0.741	79.180			
00:00:33	-0.741	79.180			
00:00:33	-0.939	79.180			
00:00:33	-0.852	79.180			
00:00:33	-0.872	79.180			
00:00:33	-0.988	79.180			
00:00:33	-0.769	79.180			
00:00:33	-0.609	79.180			
00:00:33	-0.232	79.180			
00:00:33	0.252	79.180			
00:00:33	0.881	79.180			
00:00:33	2.056	79.180			
00:00:33	3.224	79.180			
00:00:33	4.674	79.180			
00:00:33	6.120	79.180			
00:00:33	7.594	79.180			
00:00:33	9.409	79.180			
00:00:33	10.847	79.180			
00:00:33	12.048	79.180			
00:00:33	13.105	79.180			
00:00:33	13.751	79.180			
00:00:33	14.351	79.180			
00:00:33	14.441	79.180			
00:00:33	14.336	79.180			
00:00:33	14.203	79.180			
00:00:33	13.472	79.180			
00:00:33	12.886	79.180			
00:00:33	12.282	79.180			
00:00:33	11.636	79.180			
00:00:33	11.231	79.180			
00:00:33	10.377	79.180			
00:00:33	9.732	79.180			
00:00:33	9.139	81.702			
00:00:33	8.334	81.702			
00:00:33	7.759	81.702			
00:00:33	7.064	81.702			
00:00:33	6.556	81.707			
00:00:33	6.103	81.707			
00:00:33	5.431	81.707			
00:00:33	4.828	81.707			
00:00:33	3.960	81.707			
00:00:33	3.179	81.707			
00:00:33	2.501	81.707			
00:00:33	1.637	81.707			
00:00:33	1.184	81.707			
00:00:33	0.722	81.707			
00:00:33	0.330	81.707			
00:00:33	0.190	81.707			
00:00:33	-0.137	81.707			
00:00:33	-0.154	81.707			
00:00:33	-0.183	81.707			
00:00:33	-0.087	81.707			
00:00:33	0.134	81.707			
00:00:33	0.059	81.707			
00:00:33	0.275	81.707			
00:00:33	0.517	81.707			
00:00:33	0.500	81.707			
00:00:33	0.637	81.707			
00:00:33	0.622	81.707			
00:00:33	0.701	81.707			
00:00:33	0.811	81.707			
00:00:33	0.639	81.707			
00:00:33	0.704	81.707			
00:00:33	0.633	81.707			
00:00:33	0.437	81.707			
00:00:33	0.272	81.707			
00:00:33	-0.155	81.707			
00:00:33	-0.283	81.707			
00:00:33	-0.598	81.707			
00:00:33	-0.937	81.707			
00:00:33	-0.980	81.707			
00:00:33	-1.197	81.707			
00:00:33	-1.159	81.707			
00:00:33	-1.084	81.707			
00:00:33	-1.262	81.707			
00:00:33	-1.342	81.707			
00:00:34	-1.531	81.707			
00:00:34	-1.602	81.707			
00:00:34	-1.498	81.707			
00:00:34	-1.683	81.707			
00:00:34	-1.603	81.707			
00:00:34	-1.745	81.707			
00:00:34	-1.763	81.707			
00:00:34	-1.738	81.707			
00:00:34	-1.917	81.707			
00:00:34	-1.678	81.707			
00:00:34	-1.548	81.707			
00:00:34	-1.472	81.707			
00:00:34	-1.173	81.707			
00:00:34	-1.110	81.707			
00:00:34	-0.930	81.707			
00:00:34	-0.795	81.707			
00:00:34	-0.659	81.707			
00:00:34	-0.315	81.707			
00:00:34	-0.319	81.707			
00:00:34	-0.240	81.707			
00:00:34	-0.287	81.707			
00:00:34	-0.411	81.707			
00:00:34	-0.287	81.707			
00:00:34	-0.396	81.707			
00:00:34	-0.499	81.707			
00:00:34	-0.606	81.707			
00:00:34	-0.887	81.707			
00:00:34	-1.041	81.707			
00:00:34	-1.298	81.707			
00:00:34	-1.456	81.707			
00:00:34	-1.401	81.707			
00:00:34	-1.563	81.707			
00:00:34	-1.280	81.707			
00:00:34	-0.875	81.707			
00:00:34	-0.429	81.707			
00:00:34	0.342	81.707			
00:00:34	1.085	81.707			
00:00:34	2.228	81.707			
00:00:34	3.650	81.707			
00:00:34	5.209	81.707			
00:00:34	7.069	81.707			
00:00:34	8.575	81.707			
00:00:34	10.115	81.707			
00:00:34	11.559	81.707			
00:00:34	12.530	81.707			
00:00:34	13.480	81.707			
00:00:34	13.866	81.707			
00:00:34	14.170	81.707			
00:00:34	14.406	81.707			
00:00:34	14.252	81.707			
00:00:34	14.037	81.707			
00:00:34	13.456	81.707			
00:00:34	12.725	81.707			
00:00:34	12.109	81.707			
00:00:34	11.374	81.707			
00:00:34	10.809	81.707			
00:00:34	10.080	75.294			
00:00:34	9.266	75.294			
00:00:34	8.686	75.294			
00:00:34	7.990	75.294			
00:00:34	7.486	75.299			
00:00:34	6.936	75.299			
00:00:34	6.175	75.299			
00:00:34	5.521	75.299			
00:00:34	4.708	75.299			
00:00:34	4.030	75.299			
00:00:34	3.410	75.299			
00:00:34	2.481	75.299			
00:00:34	1.853	75.299			
00:00:34	1.167	75.299			
00:00:34	0.658	75.299			
00:00:34	0.310	75.299			
00:00:34	-0.258	75.299			
00:00:34	-0.309	75.299			
00:00:34	-0.427	75.299			
00:00:34	-0.474	75.299			
00:00:34	-0.335	75.299			
00:00:34	-0.370	75.299			
00:00:34	-0.201	75.299			
00:00:34	-0.138	75.299			
00:00:34	-0.043	75.299			
00:00:34	0.351	75.299			
00:00:34	0.343	75.299			
00:00:34	0.507	75.299			
00:00:34	0.607	75.299			
00:00:34	0.455	75.299			
00:00:34	0.489	75.299			
00:00:34	0.369	75.299			
00:00:34	0.242	75.299			
00:00:34	0.212	75.299			
00:00:34	-0.058	75.299			
00:00:34	-0.171	75.299			
00:00:34	-0.512	75.299			
00:00:34	-0.703	75.299			
00:00:34	-0.892	75.299			
00:00:34	-1.330	75.299			
00:00:34	-1.410	75.299			
00:00:34	-1.535	75.299			
00:00:34	-1.720	75.299			
00:00:34	-1.646	75.299			
00:00:34	-1.909	75.299			
00:00:34	-2.093	75.299			
00:00:34	-2.070	75.299			
00:00:34	-2.068	75.299			
00:00:34	-2.037	75.299			
00:00:34	-2.028	75.299			
00:00:34	-1.977	75.299			
00:00:34	-1.995	75.299			
00:00:34	-2.137	75.299			
00:00:34	-2.030	75.299			
00:00:34	-2.047	75.299			
00:00:34	-1.901	75.299			
00:00:34	-1.673	75.299			
00:00:34	-1.588	75.299			
00:00:34	-1.201	75.299			
00:00:34	-0.934	75.299			
00:00:34	-0.761	75.299			
00:00:34	-0.504	75.299			
00:00:34	-0.572	75.299			
00:00:34	-0.445	75.299			
00:00:34	-0.388	75.299			
00:00:34	-0.434	75.299			
00:00:34	-0.336	75.299			
00:00:34	-0.628	75.299			
00:00:34	-0.780	75.299			
00:00:34	-0.800	75.299			
00:00:34	-0.862	75.299			
00:00:34	-0.790	75.299			
00:00:35	-0.953	75.299			
00:00:35	-0.968	75.299			
00:00:35	-0.964	75.299			
00:00:35	-1.216	75.299			
00:00:35	-1.223	75.299			
00:00:35	-1.215	75.299			
00:00:35	-1.335	75.299			
00:00:35	-1.188	75.299			
00:00:35	-1.064	75.299			
00:00:35	-0.612	75.299			
00:00:35	0.070	75.299			
00:00:35	0.879	75.299			
00:00:35	2.018	75.299			
00:00:35	3.163	75.299			
00:00:35	4.794	75.299			
00:00:35	6.620	75.299			
00:00:35	8.280	75.299			
00:00:35	9.935	75.299			
00:00:35	11.299	75.299			
00:00:35	12.488	75.299			
00:00:35	13.297	75.299			
00:00:35	13.696	75.299			
00:00:35	14.124	75.299			
00:00:35	14.044	75.299			
00:00:35	13.715	75.299			
00:00:35	13.545	75.299			
00:00:35	13.047	75.299			
00:00:35	12.594	75.299			
00:00:35	12.008	75.299			
00:00:35	11.450	75.299			
00:00:35	10.995	75.299			
00:00:35	10.099	75.299			
00:00:35	9.303	74.563			
00:00:35	8.492	74.563			
00:00:35	7.741	74.563			
00:00:35	7.051	74.563			
00:00:35	6.184	74.568			
00:00:35	5.572	74.568			
00:00:35	4.940	74.568			
00:00:35	4.061	74.568			
00:00:35	3.311	74.568			
00:00:35	2.306	74.568			
00:00:35	1.565	74.568			
00:00:35	1.142	74.568			
00:00:35	0.722	74.568			
00:00:35	0.372	74.568			
00:00:35	-0.100	74.568			
00:00:35	-0.383	74.568			
00:00:35	-0.423	74.568			
00:00:35	-0.572	74.568			
00:00:35	-0.490	74.568			
00:00:35	-0.495	74.568			
00:00:35	-0.337	74.568			
00:00:35	0.021	74.568			
00:00:35	0.104	74.568			
00:00:35	0.335	74.568			
00:00:35	0.469	74.568			
00:00:35	0.505	74.568			
00:00:35	0.639	74.568			
00:00:35	0.379	74.568			
00:00:35	0.412	74.568			
00:00:35	0.465	74.568			
00:00:35	0.220	74.568			
00:00:35	0.213	74.568			
00:00:35	-0.091	74.568			
00:00:35	-0.258	74.568			
00:00:35	-0.529	74.568			
00:00:35	-0.725	74.568			
00:00:35	-0.721	74.568			
00:00:35	-0.887	74.568			
00:00:35	-1.031	74.568			
00:00:35	-1.044	74.568			
00:00:35	-1.320	74.568			
00:00:35	-1.485	74.568			
00:00:35	-1.761	74.568			
00:00:35	-1.975	74.568			
00:00:35	-1.956	74.568			
00:00:35	-2.015	74.568			
00:00:35	-1.919	74.568			
00:00:35	-1.784	74.568			
00:00:35	-1.820	74.568			
00:00:35	-1.859	74.568			
00:00:35	-1.984	74.568			
00:00:35	-1.955	74.568			
00:00:35	-1.860	74.568			
00:00:35	-1.814	74.568			
00:00:35	-1.603	74.568			
00:00:35	-1.570	74.568			
00:00:35	-1.438	74.568			
00:00:35	-1.144	74.568			
00:00:35	-1.069	74.568			
00:00:35	-0.848	74.568			
00:00:35	-0.944	74.568			
00:00:35	-1.088	74.568			
00:00:35	-1.009	74.568			
00:00:35	-1.075	74.568			
00:00:35	-0.781	74.568			
00:00:35	-0.510	74.568			
00:00:35	-0.448	74.568			
00:00:35	-0.255	74.568			
00:00:35	-0.470	74.568			
00:00:35	-0.434	74.568			
00:00:35	-0.524	74.568			
00:00:35	-0.693	74.568			
00:00:35	-0.585	74.568			
00:00:35	-0.794	74.568			
00:00:35	-1.067	74.568			
00:00:35	-1.109	74.568			
00:00:35	-1.151	74.568			
00:00:35	-1.067	74.568			
00:00:35	-1.153	74.568			
00:00:35	-0.862	74.568			
00:00:35	-0.350	74.568			
00:00:35	0.093	74.568			
00:00:35	1.040	74.568			
00:00:35	2.221	74.568			
00:00:35	3.534	74.568			
00:00:35	5.123	74.568			
00:00:35	6.643	74.568			
00:00:35	8.547	74.568			
00:00:35	10.153	74.568			
00:00:35	11.425	74.568			
00:00:35	12.605	74.568			
00:00:35	13.200	74.568			
00:00:35	13.568	74.568			
00:00:35	13.715	74.568			
00:00:35	13.632	74.568			
00:00:35	13.379	74.568			
00:00:36	12.738	74.568			
00:00:36	12.070	74.568			
00:00:36	11.583	74.568			
00:00:36	10.852	74.568			
00:00:36	10.162	74.568			
00:00:36	9.235	74.568			
00:00:36	8.545	74.568			
00:00:36	8.030	74.568			
00:00:36	7.347	75.294			
00:00:36	6.863	75.294			
00:00:36	6.158	75.294			
00:00:36	5.366	75.294			
00:00:36	4.660	75.299			
00:00:36	3.841	75.299			
00:00:36	3.129	75.299			
00:00:36	2.410	75.299			
00:00:36	1.544	75.299			
00:00:36	0.843	75.299			
00:00:36	-0.014	75.299			
00:00:36	-0.629	75.299			
00:00:36	-0.968	75.299			
00:00:36	-1.419	75.299			
00:00:36	-1.426	75.299			
00:00:36	-1.342	75.299			
00:00:36	-0.952	75.299			
00:00:36	-0.664	75.299			
00:00:36	-0.633	75.299			
00:00:36	-0.285	75.299			
00:00:36	-0.056	75.299			
00:00:36	0.191	75.299			
00:00:36	0.356	75.299			
00:00:36	0.311	75.299			
00:00:36	0.398	75.299			
00:00:36	0.314	75.299			
00:00:36	0.240	75.299			
00:00:36	0.368	75.299			
00:00:36	0.238	75.299			
00:00:36	0.254	75.299			
00:00:36	0.092	75.299			
00:00:36	-0.064	75.299			
00:00:36	-0.204	75.299			
00:00:36	-0.545	75.299			
00:00:36	-0.632	75.299			
00:00:36	-0.823	75.299			
00:00:36	-1.233	75.299			
00:00:36	-1.353	75.299			
00:00:36	-1.546	75.299			
00:00:36	-1.709	75.299			
00:00:36	-1.666	75.299			
00:00:36	-1.855	75.299			
00:00:36	-1.886	75.299			
00:00:36	-1.961	75.299			
00:00:36	-2.023	75.299			
00:00:36	-2.027	75.299			
00:00:36	-2.238	75.299			
00:00:36	-2.333	75.299			
00:00:36	-2.455	75.299			
00:00:36	-2.502	75.299			
00:00:36	-2.367	75.299			
00:00:36	-2.308	75.299			
