RAW Data export file (tab separated)


Client:	,kozawa
Session:	kozawa9
Date:	06-07-2020
Time:	10:51:10
Duration:	120	Seconds.
Output rate:	128	Samples/sec.

hh:mm:ss	128 SPS	32 SPS	
TIME	Sensor-G:BVP	HR (BVP)	Events	Segments	


00:00:00	-0.904	70.000			
00:00:00	-1.124	70.000			
00:00:00	-0.927	70.000			
00:00:00	-0.815	70.000			
00:00:00	-0.872	70.000			
00:00:00	-0.590	70.000			
00:00:00	-0.581	70.000			
00:00:00	-0.251	70.000			
00:00:00	0.137	70.000			
00:00:00	0.218	70.000			
00:00:00	0.612	70.000			
00:00:00	0.456	70.000			
00:00:00	0.353	70.000			
00:00:00	0.479	70.000			
00:00:00	0.147	70.000			
00:00:00	0.339	70.000			
00:00:00	0.226	70.000			
00:00:00	0.155	70.000			
00:00:00	0.193	70.000			
00:00:00	-0.231	70.000			
00:00:00	-0.208	70.000			
00:00:00	-0.418	70.000			
00:00:00	-0.581	70.000			
00:00:00	-0.557	70.000			
00:00:00	-1.039	70.000			
00:00:00	-0.941	70.000			
00:00:00	-1.100	70.000			
00:00:00	-1.527	70.000			
00:00:00	-1.529	70.000			
00:00:00	-1.988	70.000			
00:00:00	-2.027	70.000			
00:00:00	-1.996	70.000			
00:00:00	-2.300	70.000			
00:00:00	-2.111	70.000			
00:00:00	-2.149	70.000			
00:00:00	-2.143	70.000			
00:00:00	-2.061	70.000			
00:00:00	-2.407	70.000			
00:00:00	-2.267	70.000			
00:00:00	-2.373	70.000			
00:00:00	-2.373	70.000			
00:00:00	-2.069	70.000			
00:00:00	-2.321	70.000			
00:00:00	-2.224	70.000			
00:00:00	-2.129	70.000			
00:00:00	-2.008	70.000			
00:00:00	-1.559	70.000			
00:00:00	-1.676	70.000			
00:00:00	-1.578	70.000			
00:00:00	-1.532	70.000			
00:00:00	-1.587	70.000			
00:00:00	-1.380	70.000			
00:00:00	-1.454	70.000			
00:00:00	-1.436	70.000			
00:00:00	-1.296	70.000			
00:00:00	-1.512	70.000			
00:00:00	-1.281	70.000			
00:00:00	-1.348	70.000			
00:00:00	-1.333	70.000			
00:00:00	-1.157	70.000			
00:00:00	-1.143	70.000			
00:00:00	-0.808	70.000			
00:00:00	-0.852	70.000			
00:00:00	-0.922	70.000			
00:00:00	-0.546	70.000			
00:00:00	-0.396	70.000			
00:00:00	0.441	70.000			
00:00:00	1.429	70.000			
00:00:00	2.488	70.000			
00:00:00	4.158	70.000			
00:00:00	5.460	70.000			
00:00:00	7.111	70.000			
00:00:00	8.750	70.000			
00:00:00	9.951	70.000			
00:00:00	11.475	70.000			
00:00:00	12.272	70.000			
00:00:00	13.069	70.000			
00:00:00	13.704	70.000			
00:00:00	13.764	70.000			
00:00:00	14.043	70.000			
00:00:00	13.756	70.000			
00:00:00	13.470	70.000			
00:00:00	13.125	70.000			
00:00:00	12.273	70.000			
00:00:00	11.869	70.000			
00:00:00	11.021	70.000			
00:00:00	10.142	70.000			
00:00:00	9.627	70.000			
00:00:00	8.653	70.000			
00:00:00	8.001	70.000			
00:00:00	7.429	70.000			
00:00:00	6.555	70.000			
00:00:00	6.072	70.000			
00:00:00	5.160	70.000			
00:00:00	4.417	70.000			
00:00:00	3.751	70.000			
00:00:00	2.632	70.000			
00:00:00	2.167	70.000			
00:00:00	1.202	70.000			
00:00:00	0.732	70.000			
00:00:00	0.534	70.000			
00:00:00	-0.210	70.000			
00:00:00	-0.193	70.000			
00:00:00	-0.630	70.000			
00:00:00	-0.853	70.000			
00:00:00	-0.565	70.000			
00:00:00	-1.021	70.000			
00:00:00	-0.717	70.000			
00:00:00	-0.534	70.000			
00:00:00	-0.553	70.000			
00:00:00	-0.058	70.000			
00:00:00	-0.375	70.000			
00:00:00	-0.180	70.000			
00:00:00	0.046	70.000			
00:00:00	-0.088	70.000			
00:00:00	0.391	70.000			
00:00:00	0.176	70.000			
00:00:00	0.427	70.000			
00:00:00	0.541	70.000			
00:00:00	0.056	70.000			
00:00:00	0.300	70.000			
00:00:00	0.051	70.000			
00:00:00	-0.113	70.000			
00:00:00	-0.087	70.000			
00:00:00	-0.761	70.000			
00:00:00	-0.746	70.000			
00:00:00	-0.863	70.000			
00:00:00	-1.064	70.000			
00:00:01	-0.746	70.000			
00:00:01	-1.112	70.000			
00:00:01	-0.997	70.000			
00:00:01	-1.139	70.000			
00:00:01	-1.616	70.000			
00:00:01	-1.442	70.000			
00:00:01	-2.058	70.000			
00:00:01	-2.047	70.000			
00:00:01	-1.840	70.000			
00:00:01	-2.129	70.000			
00:00:01	-1.772	70.000			
00:00:01	-2.122	70.000			
00:00:01	-1.942	70.000			
00:00:01	-1.544	70.000			
00:00:01	-1.646	70.000			
00:00:01	-1.235	70.000			
00:00:01	-1.284	70.000			
00:00:01	-1.412	70.000			
00:00:01	-1.071	70.000			
00:00:01	-1.418	70.000			
00:00:01	-1.290	70.000			
00:00:01	-1.355	70.000			
00:00:01	-1.334	70.000			
00:00:01	-0.846	70.000			
00:00:01	-0.967	70.000			
00:00:01	-0.774	70.000			
00:00:01	-0.813	70.000			
00:00:01	-1.160	70.000			
00:00:01	-0.721	70.000			
00:00:01	-1.040	70.000			
00:00:01	-1.043	70.000			
00:00:01	-1.006	70.000			
00:00:01	-1.423	70.000			
00:00:01	-1.062	70.000			
00:00:01	-1.161	70.000			
00:00:01	-1.122	70.000			
00:00:01	-0.881	70.000			
00:00:01	-1.079	70.000			
00:00:01	-0.523	70.000			
00:00:01	-0.290	70.000			
00:00:01	0.315	70.000			
00:00:01	1.624	70.000			
00:00:01	2.486	70.000			
00:00:01	4.193	70.000			
00:00:01	5.609	70.000			
00:00:01	7.184	70.000			
00:00:01	9.092	70.000			
00:00:01	10.031	70.000			
00:00:01	11.395	70.000			
00:00:01	12.286	70.000			
00:00:01	12.602	70.000			
00:00:01	13.656	70.000			
00:00:01	13.636	70.000			
00:00:01	13.545	70.000			
00:00:01	13.327	70.000			
00:00:01	12.508	70.000			
00:00:01	12.468	70.000			
00:00:01	11.704	70.000			
00:00:01	11.026	70.000			
00:00:01	10.504	70.000			
00:00:01	9.405	70.000			
00:00:01	8.930	70.000			
00:00:01	8.087	70.000			
00:00:01	7.389	70.000			
00:00:01	6.865	69.818			
00:00:01	5.636	69.818			
00:00:01	4.874	69.818			
00:00:01	3.854	69.818			
00:00:01	2.835	69.823			
00:00:01	2.441	69.823			
00:00:01	1.434	69.823			
00:00:01	0.733	69.823			
00:00:01	0.048	69.823			
00:00:01	-0.870	69.823			
00:00:01	-1.088	69.823			
00:00:01	-1.746	69.823			
00:00:01	-1.961	69.823			
00:00:01	-2.025	69.823			
00:00:01	-2.405	69.823			
00:00:01	-1.974	69.823			
00:00:01	-2.102	69.823			
00:00:01	-2.035	69.823			
00:00:01	-1.570	69.823			
00:00:01	-1.689	69.823			
00:00:01	-1.113	69.823			
00:00:01	-0.874	69.823			
00:00:01	-0.840	69.823			
00:00:01	-0.271	69.823			
00:00:01	-0.325	69.823			
00:00:01	-0.052	69.823			
00:00:01	-0.097	69.823			
00:00:01	-0.520	69.823			
00:00:01	-0.349	69.823			
00:00:01	-0.828	69.823			
00:00:01	-0.835	69.823			
00:00:01	-0.826	69.823			
00:00:01	-1.262	69.823			
00:00:01	-0.854	69.823			
00:00:01	-1.059	69.823			
00:00:01	-0.965	69.823			
00:00:01	-0.890	69.823			
00:00:01	-1.585	69.823			
00:00:01	-1.559	69.823			
00:00:01	-1.855	69.823			
00:00:01	-2.022	69.823			
00:00:01	-1.844	69.823			
00:00:01	-2.283	69.823			
00:00:01	-2.257	69.823			
00:00:01	-2.457	69.823			
00:00:01	-2.736	69.823			
00:00:01	-2.367	69.823			
00:00:01	-2.655	69.823			
00:00:01	-2.569	69.823			
00:00:01	-2.520	69.823			
00:00:01	-2.652	69.823			
00:00:01	-2.297	69.823			
00:00:01	-2.603	69.823			
00:00:01	-2.516	69.823			
00:00:01	-2.273	69.823			
00:00:01	-2.620	69.823			
00:00:01	-2.188	69.823			
00:00:01	-2.319	69.823			
00:00:01	-2.119	69.823			
00:00:01	-1.658	69.823			
00:00:01	-1.812	69.823			
00:00:01	-1.383	69.823			
00:00:01	-1.341	69.823			
00:00:01	-1.368	69.823			
00:00:02	-0.924	69.823			
00:00:02	-1.336	69.823			
00:00:02	-1.223	69.823			
00:00:02	-1.194	69.823			
00:00:02	-1.224	69.823			
00:00:02	-0.742	69.823			
00:00:02	-0.978	69.823			
00:00:02	-0.579	69.823			
00:00:02	-0.278	69.823			
00:00:02	-0.249	69.823			
00:00:02	0.732	69.823			
00:00:02	1.318	69.823			
00:00:02	2.317	69.823			
00:00:02	3.664	69.823			
00:00:02	4.586	69.823			
00:00:02	6.306	69.823			
00:00:02	7.710	69.823			
00:00:02	9.208	69.823			
00:00:02	10.990	69.823			
00:00:02	12.008	69.823			
00:00:02	13.256	69.823			
00:00:02	14.100	69.823			
00:00:02	14.780	69.823			
00:00:02	15.656	69.823			
00:00:02	15.530	69.823			
00:00:02	15.533	69.823			
00:00:02	15.145	69.823			
00:00:02	14.451	69.823			
00:00:02	14.243	69.823			
00:00:02	13.221	69.823			
00:00:02	12.487	69.823			
00:00:02	11.770	69.823			
00:00:02	10.695	77.576			
00:00:02	10.228	77.576			
00:00:02	9.274	77.576			
00:00:02	8.496	77.576			
00:00:02	7.825	77.581			
00:00:02	6.595	77.581			
00:00:02	5.946	77.581			
00:00:02	4.965	77.581			
00:00:02	4.015	77.581			
00:00:02	3.285	77.581			
00:00:02	1.937	77.581			
00:00:02	1.413	77.581			
00:00:02	0.766	77.581			
00:00:02	0.280	77.581			
00:00:02	0.498	77.581			
00:00:02	0.128	77.581			
00:00:02	0.378	77.581			
00:00:02	0.407	77.581			
00:00:02	0.139	77.581			
00:00:02	0.493	77.581			
00:00:02	0.463	77.581			
00:00:02	0.764	77.581			
00:00:02	0.949	77.581			
00:00:02	0.680	77.581			
00:00:02	1.249	77.581			
00:00:02	1.297	77.581			
00:00:02	1.283	77.581			
00:00:02	1.348	77.581			
00:00:02	0.948	77.581			
00:00:02	1.068	77.581			
00:00:02	0.860	77.581			
00:00:02	0.576	77.581			
00:00:02	0.818	77.581			
00:00:02	0.388	77.581			
00:00:02	0.407	77.581			
00:00:02	0.117	77.581			
00:00:02	-0.442	77.581			
00:00:02	-0.243	77.581			
00:00:02	-0.474	77.581			
00:00:02	-0.508	77.581			
00:00:02	-0.515	77.581			
00:00:02	-0.990	77.581			
00:00:02	-0.739	77.581			
00:00:02	-0.951	77.581			
00:00:02	-1.029	77.581			
00:00:02	-0.961	77.581			
00:00:02	-1.480	77.581			
00:00:02	-1.147	77.581			
00:00:02	-1.366	77.581			
00:00:02	-1.461	77.581			
00:00:02	-1.211	77.581			
00:00:02	-1.530	77.581			
00:00:02	-1.243	77.581			
00:00:02	-1.279	77.581			
00:00:02	-1.301	77.581			
00:00:02	-0.838	77.581			
00:00:02	-1.210	77.581			
00:00:02	-1.044	77.581			
00:00:02	-1.107	77.581			
00:00:02	-1.310	77.581			
00:00:02	-0.959	77.581			
00:00:02	-1.177	77.581			
00:00:02	-1.184	77.581			
00:00:02	-0.994	77.581			
00:00:02	-1.220	77.581			
00:00:02	-0.884	77.581			
00:00:02	-0.964	77.581			
00:00:02	-0.892	77.581			
00:00:02	-0.669	77.581			
00:00:02	-0.984	77.581			
00:00:02	-0.323	77.581			
00:00:02	0.107	77.581			
00:00:02	0.525	77.581			
00:00:02	1.694	77.581			
00:00:02	2.460	77.581			
00:00:02	4.011	77.581			
00:00:02	5.593	77.581			
00:00:02	7.130	77.581			
00:00:02	9.014	77.581			
00:00:02	10.018	77.581			
00:00:02	11.266	77.581			
00:00:02	12.113	77.581			
00:00:02	12.414	77.581			
00:00:02	13.154	77.581			
00:00:02	13.035	77.581			
00:00:02	13.150	77.581			
00:00:02	13.207	77.581			
00:00:02	12.561	77.581			
00:00:02	12.502	77.581			
00:00:02	11.838	77.581			
00:00:02	11.296	77.581			
00:00:02	10.827	77.581			
00:00:02	9.762	77.581			
00:00:02	9.415	77.581			
00:00:02	8.675	77.581			
00:00:02	7.882	77.581			
00:00:03	7.481	82.581			
00:00:03	6.247	82.581			
00:00:03	5.580	82.581			
00:00:03	4.845	82.581			
00:00:03	4.029	82.586			
00:00:03	3.690	82.586			
00:00:03	2.535	82.586			
00:00:03	1.858	82.586			
00:00:03	1.243	82.586			
00:00:03	0.219	82.586			
00:00:03	0.053	82.586			
00:00:03	-0.515	82.586			
00:00:03	-0.795	82.586			
00:00:03	-0.658	82.586			
00:00:03	-1.149	82.586			
00:00:03	-0.844	82.586			
00:00:03	-0.706	82.586			
00:00:03	-0.569	82.586			
00:00:03	-0.145	82.586			
00:00:03	-0.386	82.586			
00:00:03	0.129	82.586			
00:00:03	0.342	82.586			
00:00:03	0.278	82.586			
00:00:03	0.624	82.586			
00:00:03	0.315	82.586			
00:00:03	0.443	82.586			
00:00:03	0.419	82.586			
00:00:03	0.000	82.586			
00:00:03	0.262	82.586			
00:00:03	-0.078	82.586			
00:00:03	-0.126	82.586			
00:00:03	-0.028	82.586			
00:00:03	-0.546	82.586			
00:00:03	-0.409	82.586			
00:00:03	-0.805	82.586			
00:00:03	-1.065	82.586			
00:00:03	-1.061	82.586			
00:00:03	-1.566	82.586			
00:00:03	-1.511	82.586			
00:00:03	-1.557	82.586			
00:00:03	-1.540	82.586			
00:00:03	-1.094	82.586			
00:00:03	-1.371	82.586			
00:00:03	-1.212	82.586			
00:00:03	-1.307	82.586			
00:00:03	-1.590	82.586			
00:00:03	-1.286	82.586			
00:00:03	-1.611	82.586			
00:00:03	-1.667	82.586			
00:00:03	-1.543	82.586			
00:00:03	-1.862	82.586			
00:00:03	-1.550	82.586			
00:00:03	-1.742	82.586			
00:00:03	-1.683	82.586			
00:00:03	-1.413	82.586			
00:00:03	-1.604	82.586			
00:00:03	-1.158	82.586			
00:00:03	-1.141	82.586			
00:00:03	-1.038	82.586			
00:00:03	-0.846	82.586			
00:00:03	-1.233	82.586			
00:00:03	-0.986	82.586			
00:00:03	-1.015	82.586			
00:00:03	-1.045	82.586			
00:00:03	-0.537	82.586			
00:00:03	-0.508	82.586			
00:00:03	0.322	82.586			
00:00:03	1.278	82.586			
00:00:03	2.340	82.586			
00:00:03	3.980	82.586			
00:00:03	5.243	82.586			
00:00:03	6.926	82.586			
00:00:03	8.533	82.586			
00:00:03	9.654	82.586			
00:00:03	11.300	82.586			
00:00:03	12.150	82.586			
00:00:03	12.989	82.586			
00:00:03	13.751	82.586			
00:00:03	13.660	82.586			
00:00:03	14.010	82.586			
00:00:03	13.846	82.586			
00:00:03	13.570	82.586			
00:00:03	13.403	82.586			
00:00:03	12.494	82.586			
00:00:03	12.132	82.586			
00:00:03	11.412	82.586			
00:00:03	10.603	82.586			
00:00:03	10.315	82.586			
00:00:03	9.367	85.333			
00:00:03	8.911	85.333			
00:00:03	8.276	85.333			
00:00:03	7.520	85.333			
00:00:03	7.322	85.338			
00:00:03	6.415	85.338			
00:00:03	5.785	85.338			
00:00:03	5.198	85.338			
00:00:03	4.028	85.338			
00:00:03	3.410	85.338			
00:00:03	2.333	85.338			
00:00:03	1.567	85.338			
00:00:03	0.922	85.338			
00:00:03	-0.130	85.338			
00:00:03	-0.376	85.338			
00:00:03	-0.811	85.338			
00:00:03	-1.132	85.338			
00:00:03	-0.788	85.338			
00:00:03	-1.210	85.338			
00:00:03	-1.032	85.338			
00:00:03	-0.906	85.338			
00:00:03	-0.901	85.338			
00:00:03	-0.316	85.338			
00:00:03	-0.363	85.338			
00:00:03	-0.094	85.338			
00:00:03	-0.009	85.338			
00:00:03	-0.389	85.338			
00:00:03	-0.119	85.338			
00:00:03	-0.369	85.338			
00:00:03	-0.393	85.338			
00:00:03	-0.213	85.338			
00:00:03	-0.660	85.338			
00:00:03	-0.409	85.338			
00:00:03	-0.595	85.338			
00:00:03	-0.791	85.338			
00:00:03	-0.637	85.338			
00:00:03	-1.070	85.338			
00:00:03	-1.035	85.338			
00:00:03	-1.309	85.338			
00:00:03	-1.558	85.338			
00:00:04	-1.301	85.338			
00:00:04	-1.837	85.338			
00:00:04	-1.712	85.338			
00:00:04	-1.636	85.338			
00:00:04	-1.801	85.338			
00:00:04	-1.358	85.338			
00:00:04	-1.685	85.338			
00:00:04	-1.717	85.338			
00:00:04	-1.667	85.338			
00:00:04	-1.869	85.338			
00:00:04	-1.422	85.338			
00:00:04	-1.743	85.338			
00:00:04	-1.732	85.338			
00:00:04	-1.425	85.338			
00:00:04	-1.660	85.338			
00:00:04	-1.315	85.338			
00:00:04	-1.332	85.338			
00:00:04	-1.487	85.338			
00:00:04	-1.341	85.338			
00:00:04	-1.796	85.338			
00:00:04	-1.613	85.338			
00:00:04	-1.783	85.338			
00:00:04	-1.841	85.338			
00:00:04	-1.308	85.338			
00:00:04	-1.374	85.338			
00:00:04	-1.179	85.338			
00:00:04	-1.147	85.338			
00:00:04	-1.465	85.338			
00:00:04	-1.133	85.338			
00:00:04	-1.430	85.338			
00:00:04	-1.452	85.338			
00:00:04	-1.463	85.338			
00:00:04	-1.737	85.338			
00:00:04	-1.204	85.338			
00:00:04	-1.014	85.338			
00:00:04	-0.451	85.338			
00:00:04	0.834	85.338			
00:00:04	1.609	85.338			
00:00:04	3.161	85.338			
00:00:04	4.605	85.338			
00:00:04	6.000	85.338			
00:00:04	7.825	85.338			
00:00:04	9.008	85.338			
00:00:04	10.539	85.338			
00:00:04	11.659	85.338			
00:00:04	12.327	85.338			
00:00:04	13.325	85.338			
00:00:04	13.572	85.338			
00:00:04	13.874	85.338			
00:00:04	13.976	85.338			
00:00:04	13.422	85.338			
00:00:04	13.397	85.338			
00:00:04	12.781	85.338			
00:00:04	12.248	85.338			
00:00:04	11.755	85.338			
00:00:04	10.779	85.338			
00:00:04	10.378	85.338			
00:00:04	9.476	85.338			
00:00:04	8.852	85.338			
00:00:04	8.444	85.338			
00:00:04	7.457	78.367			
00:00:04	7.169	78.367			
00:00:04	6.588	78.367			
00:00:04	5.845	78.367			
00:00:04	5.408	78.372			
00:00:04	4.212	78.372			
00:00:04	3.431	78.372			
00:00:04	2.632	78.372			
00:00:04	1.505	78.372			
00:00:04	1.293	78.372			
00:00:04	0.463	78.372			
00:00:04	0.008	78.372			
00:00:04	-0.235	78.372			
00:00:04	-0.831	78.372			
00:00:04	-0.650	78.372			
00:00:04	-1.101	78.372			
00:00:04	-1.172	78.372			
00:00:04	-0.899	78.372			
00:00:04	-1.141	78.372			
00:00:04	-0.731	78.372			
00:00:04	-0.724	78.372			
00:00:04	-0.658	78.372			
00:00:04	-0.356	78.372			
00:00:04	-0.687	78.372			
00:00:04	-0.401	78.372			
00:00:04	-0.359	78.372			
00:00:04	-0.545	78.372			
00:00:04	-0.176	78.372			
00:00:04	-0.677	78.372			
00:00:04	-0.643	78.372			
00:00:04	-0.754	78.372			
00:00:04	-1.190	78.372			
00:00:04	-0.900	78.372			
00:00:04	-1.383	78.372			
00:00:04	-1.629	78.372			
00:00:04	-1.622	78.372			
00:00:04	-2.061	78.372			
00:00:04	-1.891	78.372			
00:00:04	-2.256	78.372			
00:00:04	-2.512	78.372			
00:00:04	-2.236	78.372			
00:00:04	-2.562	78.372			
00:00:04	-2.446	78.372			
00:00:04	-2.476	78.372			
00:00:04	-2.512	78.372			
00:00:04	-2.190	78.372			
00:00:04	-2.648	78.372			
00:00:04	-2.651	78.372			
00:00:04	-2.599	78.372			
00:00:04	-2.875	78.372			
00:00:04	-2.495	78.372			
00:00:04	-2.642	78.372			
00:00:04	-2.477	78.372			
00:00:04	-2.264	78.372			
00:00:04	-2.494	78.372			
00:00:04	-2.093	78.372			
00:00:04	-2.188	78.372			
00:00:04	-1.995	78.372			
00:00:04	-1.739	78.372			
00:00:04	-2.006	78.372			
00:00:04	-1.606	78.372			
00:00:04	-1.618	78.372			
00:00:04	-1.758	78.372			
00:00:04	-1.650	78.372			
00:00:04	-2.022	78.372			
00:00:04	-1.779	78.372			
00:00:04	-1.748	78.372			
00:00:04	-1.881	78.372			
00:00:05	-1.441	78.372			
00:00:05	-1.847	78.372			
00:00:05	-1.910	78.372			
00:00:05	-2.077	78.372			
00:00:05	-2.412	78.372			
00:00:05	-2.094	78.372			
00:00:05	-2.221	78.372			
00:00:05	-1.702	78.372			
00:00:05	-1.101	78.372			
00:00:05	-0.751	78.372			
00:00:05	0.536	78.372			
00:00:05	1.352	78.372			
00:00:05	2.645	78.372			
00:00:05	4.480	78.372			
00:00:05	5.862	78.372			
00:00:05	7.762	78.372			
00:00:05	9.259	78.372			
00:00:05	10.383	78.372			
00:00:05	11.800	78.372			
00:00:05	12.424	78.372			
00:00:05	13.121	78.372			
00:00:05	13.500	78.372			
00:00:05	13.371	78.372			
00:00:05	13.672	78.372			
00:00:05	13.133	78.372			
00:00:05	12.857	78.372			
00:00:05	12.566	78.372			
00:00:05	11.860	78.372			
00:00:05	11.808	78.372			
00:00:05	11.097	78.372			
00:00:05	10.555	78.372			
00:00:05	10.057	78.372			
00:00:05	9.231	75.294			
00:00:05	8.976	75.294			
00:00:05	8.295	75.294			
00:00:05	7.478	75.294			
00:00:05	6.849	75.299			
00:00:05	5.685	75.299			
00:00:05	5.035	75.299			
00:00:05	4.207	75.299			
00:00:05	3.243	75.299			
00:00:05	2.694	75.299			
00:00:05	1.480	75.299			
00:00:05	0.738	75.299			
00:00:05	0.025	75.299			
00:00:05	-0.643	75.299			
00:00:05	-0.644	75.299			
00:00:05	-1.142	75.299			
00:00:05	-1.241	75.299			
00:00:05	-1.291	75.299			
00:00:05	-1.657	75.299			
00:00:05	-1.247	75.299			
00:00:05	-1.349	75.299			
00:00:05	-1.178	75.299			
00:00:05	-0.747	75.299			
00:00:05	-0.995	75.299			
00:00:05	-0.687	75.299			
00:00:05	-0.729	75.299			
00:00:05	-0.926	75.299			
00:00:05	-0.595	75.299			
00:00:05	-0.974	75.299			
00:00:05	-0.825	75.299			
00:00:05	-0.842	75.299			
00:00:05	-0.973	75.299			
00:00:05	-0.747	75.299			
00:00:05	-1.233	75.299			
00:00:05	-1.127	75.299			
00:00:05	-1.081	75.299			
00:00:05	-1.503	75.299			
00:00:05	-1.198	75.299			
00:00:05	-1.616	75.299			
00:00:05	-1.822	75.299			
00:00:05	-1.899	75.299			
00:00:05	-2.388	75.299			
00:00:05	-2.192	75.299			
00:00:05	-2.483	75.299			
00:00:05	-2.670	75.299			
00:00:05	-2.373	75.299			
00:00:05	-2.674	75.299			
00:00:05	-2.393	75.299			
00:00:05	-2.399	75.299			
00:00:05	-2.481	75.299			
00:00:05	-2.198	75.299			
00:00:05	-2.594	75.299			
00:00:05	-2.465	75.299			
00:00:05	-2.424	75.299			
00:00:05	-2.632	75.299			
00:00:05	-2.230	75.299			
00:00:05	-2.321	75.299			
00:00:05	-2.087	75.299			
00:00:05	-1.870	75.299			
00:00:05	-1.991	75.299			
00:00:05	-1.650	75.299			
00:00:05	-1.819	75.299			
00:00:05	-1.690	75.299			
00:00:05	-1.369	75.299			
00:00:05	-1.700	75.299			
00:00:05	-1.520	75.299			
00:00:05	-1.624	75.299			
00:00:05	-1.541	75.299			
00:00:05	-1.117	75.299			
00:00:05	-1.261	75.299			
00:00:05	-0.972	75.299			
00:00:05	-1.080	75.299			
00:00:05	-1.254	75.299			
00:00:05	-1.093	75.299			
00:00:05	-1.572	75.299			
00:00:05	-1.562	75.299			
00:00:05	-1.689	75.299			
00:00:05	-2.173	75.299			
00:00:05	-1.839	75.299			
00:00:05	-2.037	75.299			
00:00:05	-1.747	75.299			
00:00:05	-1.045	75.299			
00:00:05	-0.594	75.299			
00:00:05	0.732	75.299			
00:00:05	1.834	75.299			
00:00:05	3.235	75.299			
00:00:05	4.926	75.299			
00:00:05	6.159	75.299			
00:00:05	7.889	75.299			
00:00:05	9.093	75.299			
00:00:05	10.190	75.299			
00:00:05	11.464	75.299			
00:00:05	11.827	75.299			
00:00:05	12.540	75.299			
00:00:05	12.916	75.299			
00:00:05	12.890	75.299			
00:00:06	13.207	75.299			
00:00:06	12.630	75.299			
00:00:06	12.403	75.299			
00:00:06	12.099	75.299			
00:00:06	11.237	75.299			
00:00:06	11.087	75.299			
00:00:06	10.405	75.299			
00:00:06	9.954	75.299			
00:00:06	9.423	73.143			
00:00:06	8.523	73.143			
00:00:06	8.184	73.143			
00:00:06	7.402	73.143			
00:00:06	6.860	73.148			
00:00:06	6.487	73.148			
00:00:06	5.402	73.148			
00:00:06	4.912	73.148			
00:00:06	4.039	73.148			
00:00:06	2.992	73.148			
00:00:06	2.460	73.148			
00:00:06	1.445	73.148			
00:00:06	0.903	73.148			
00:00:06	0.397	73.148			
00:00:06	-0.248	73.148			
00:00:06	-0.257	73.148			
00:00:06	-0.751	73.148			
00:00:06	-0.743	73.148			
00:00:06	-0.606	73.148			
00:00:06	-0.930	73.148			
00:00:06	-0.680	73.148			
00:00:06	-0.901	73.148			
00:00:06	-0.817	73.148			
00:00:06	-0.374	73.148			
00:00:06	-0.632	73.148			
00:00:06	-0.192	73.148			
00:00:06	-0.340	73.148			
00:00:06	-0.265	73.148			
00:00:06	0.008	73.148			
00:00:06	-0.335	73.148			
00:00:06	-0.355	73.148			
00:00:06	-0.643	73.148			
00:00:06	-0.890	73.148			
00:00:06	-0.607	73.148			
00:00:06	-0.920	73.148			
00:00:06	-0.911	73.148			
00:00:06	-1.013	73.148			
00:00:06	-1.501	73.148			
00:00:06	-1.291	73.148			
00:00:06	-1.500	73.148			
00:00:06	-1.449	73.148			
00:00:06	-1.433	73.148			
00:00:06	-1.980	73.148			
00:00:06	-1.916	73.148			
00:00:06	-2.337	73.148			
00:00:06	-2.380	73.148			
00:00:06	-2.070	73.148			
00:00:06	-2.356	73.148			
00:00:06	-2.120	73.148			
00:00:06	-2.180	73.148			
00:00:06	-2.414	73.148			
00:00:06	-2.071	73.148			
00:00:06	-2.350	73.148			
00:00:06	-2.176	73.148			
00:00:06	-2.264	73.148			
00:00:06	-2.525	73.148			
00:00:06	-2.120	73.148			
00:00:06	-2.429	73.148			
00:00:06	-2.190	73.148			
00:00:06	-1.866	73.148			
00:00:06	-2.162	73.148			
00:00:06	-1.736	73.148			
00:00:06	-1.910	73.148			
00:00:06	-1.956	73.148			
00:00:06	-1.813	73.148			
00:00:06	-2.171	73.148			
00:00:06	-1.726	73.148			
00:00:06	-1.884	73.148			
00:00:06	-1.874	73.148			
00:00:06	-1.589	73.148			
00:00:06	-1.909	73.148			
00:00:06	-1.712	73.148			
00:00:06	-1.815	73.148			
00:00:06	-2.068	73.148			
00:00:06	-1.814	73.148			
00:00:06	-2.126	73.148			
00:00:06	-2.095	73.148			
00:00:06	-2.012	73.148			
00:00:06	-2.414	73.148			
00:00:06	-2.185	73.148			
00:00:06	-2.440	73.148			
00:00:06	-2.367	73.148			
00:00:06	-2.182	73.148			
00:00:06	-2.433	73.148			
00:00:06	-1.996	73.148			
00:00:06	-1.978	73.148			
00:00:06	-1.507	73.148			
00:00:06	-0.542	73.148			
00:00:06	0.226	73.148			
00:00:06	1.908	73.148			
00:00:06	3.514	73.148			
00:00:06	5.007	73.148			
00:00:06	6.829	73.148			
00:00:06	7.958	73.148			
00:00:06	9.417	73.148			
00:00:06	10.659	73.148			
00:00:06	11.483	73.148			
00:00:06	12.526	73.148			
00:00:06	12.523	73.148			
00:00:06	12.794	73.148			
00:00:06	12.969	73.148			
00:00:06	12.797	73.148			
00:00:06	12.976	73.148			
00:00:06	12.462	73.148			
00:00:06	12.183	73.148			
00:00:06	11.889	73.148			
00:00:06	11.083	73.148			
00:00:06	10.784	73.148			
00:00:06	9.986	73.148			
00:00:06	9.171	73.148			
00:00:06	8.759	73.148			
00:00:06	7.837	73.148			
00:00:06	7.515	70.459			
00:00:06	6.854	70.459			
00:00:06	6.168	70.459			
00:00:06	5.768	70.459			
00:00:06	4.740	70.464			
00:00:06	4.166	70.464			
00:00:06	3.271	70.464			
00:00:06	2.101	70.464			
00:00:07	1.597	70.464			
00:00:07	0.605	70.464			
00:00:07	0.076	70.464			
00:00:07	-0.313	70.464			
00:00:07	-0.825	70.464			
00:00:07	-0.718	70.464			
00:00:07	-0.964	70.464			
00:00:07	-0.841	70.464			
00:00:07	-0.566	70.464			
00:00:07	-0.753	70.464			
00:00:07	-0.302	70.464			
00:00:07	-0.425	70.464			
00:00:07	-0.344	70.464			
00:00:07	0.042	70.464			
00:00:07	-0.038	70.464			
00:00:07	0.242	70.464			
00:00:07	0.308	70.464			
00:00:07	-0.023	70.464			
00:00:07	0.002	70.464			
00:00:07	-0.494	70.464			
00:00:07	-0.551	70.464			
00:00:07	-0.831	70.464			
00:00:07	-1.251	70.464			
00:00:07	-1.219	70.464			
00:00:07	-1.743	70.464			
00:00:07	-1.901	70.464			
00:00:07	-1.998	70.464			
00:00:07	-2.398	70.464			
00:00:07	-2.210	70.464			
00:00:07	-2.530	70.464			
00:00:07	-2.620	70.464			
00:00:07	-2.385	70.464			
00:00:07	-2.727	70.464			
00:00:07	-2.524	70.464			
00:00:07	-2.651	70.464			
00:00:07	-2.852	70.464			
00:00:07	-2.520	70.464			
00:00:07	-2.737	70.464			
00:00:07	-2.354	70.464			
00:00:07	-2.136	70.464			
00:00:07	-2.331	70.464			
00:00:07	-2.130	70.464			
00:00:07	-2.567	70.464			
00:00:07	-2.660	70.464			
00:00:07	-2.597	70.464			
00:00:07	-2.899	70.464			
00:00:07	-2.370	70.464			
00:00:07	-2.561	70.464			
00:00:07	-2.450	70.464			
00:00:07	-2.081	70.464			
00:00:07	-2.155	70.464			
00:00:07	-1.896	70.464			
00:00:07	-1.903	70.464			
00:00:07	-1.810	70.464			
00:00:07	-1.583	70.464			
00:00:07	-2.045	70.464			
00:00:07	-1.872	70.464			
00:00:07	-1.949	70.464			
00:00:07	-2.035	70.464			
00:00:07	-1.731	70.464			
00:00:07	-1.953	70.464			
00:00:07	-1.734	70.464			
00:00:07	-1.555	70.464			
00:00:07	-1.800	70.464			
00:00:07	-1.368	70.464			
00:00:07	-1.659	70.464			
00:00:07	-1.794	70.464			
00:00:07	-1.815	70.464			
00:00:07	-2.160	70.464			
00:00:07	-1.954	70.464			
00:00:07	-2.142	70.464			
00:00:07	-2.185	70.464			
00:00:07	-1.904	70.464			
00:00:07	-2.078	70.464			
00:00:07	-1.655	70.464			
00:00:07	-1.519	70.464			
00:00:07	-1.142	70.464			
00:00:07	-0.062	70.464			
00:00:07	0.821	70.464			
00:00:07	2.459	70.464			
00:00:07	4.016	70.464			
00:00:07	5.325	70.464			
00:00:07	7.314	70.464			
00:00:07	8.539	70.464			
00:00:07	10.183	70.464			
00:00:07	11.366	70.464			
00:00:07	11.939	70.464			
00:00:07	12.985	70.464			
00:00:07	13.259	70.464			
00:00:07	13.481	70.464			
00:00:07	13.641	70.464			
00:00:07	13.152	70.464			
00:00:07	13.060	70.464			
00:00:07	12.530	70.464			
00:00:07	11.964	70.464			
00:00:07	11.712	70.464			
00:00:07	10.829	70.464			
00:00:07	10.611	70.464			
00:00:07	9.955	70.464			
00:00:07	9.149	70.464			
00:00:07	8.755	70.459			
00:00:07	7.523	70.459			
00:00:07	6.952	70.459			
00:00:07	6.246	70.459			
00:00:07	5.240	70.464			
00:00:07	4.838	70.464			
00:00:07	3.875	70.464			
00:00:07	3.173	70.464			
00:00:07	2.569	70.464			
00:00:07	1.390	70.464			
00:00:07	0.969	70.464			
00:00:07	0.220	70.464			
00:00:07	-0.244	70.464			
00:00:07	-0.253	70.464			
00:00:07	-0.849	70.464			
00:00:07	-0.763	70.464			
00:00:07	-0.713	70.464			
00:00:07	-0.702	70.464			
00:00:07	-0.256	70.464			
00:00:07	-0.384	70.464			
00:00:07	-0.220	70.464			
00:00:07	-0.216	70.464			
00:00:07	-0.456	70.464			
00:00:07	-0.083	70.464			
00:00:07	-0.363	70.464			
00:00:07	-0.425	70.464			
00:00:07	-0.622	70.464			
00:00:07	-0.963	70.464			
00:00:08	-0.710	70.464			
00:00:08	-0.974	70.464			
00:00:08	-1.112	70.464			
00:00:08	-1.074	70.464			
00:00:08	-1.540	70.464			
00:00:08	-1.554	70.464			
00:00:08	-1.724	70.464			
00:00:08	-1.827	70.464			
00:00:08	-1.664	70.464			
00:00:08	-2.024	70.464			
00:00:08	-1.806	70.464			
00:00:08	-1.952	70.464			
00:00:08	-2.060	70.464			
00:00:08	-1.789	70.464			
00:00:08	-2.278	70.464			
00:00:08	-2.420	70.464			
00:00:08	-2.553	70.464			
00:00:08	-2.730	70.464			
00:00:08	-2.346	70.464			
00:00:08	-2.434	70.464			
00:00:08	-2.188	70.464			
00:00:08	-2.008	70.464			
00:00:08	-2.252	70.464			
00:00:08	-1.964	70.464			
00:00:08	-2.194	70.464			
00:00:08	-2.191	70.464			
00:00:08	-1.927	70.464			
00:00:08	-2.196	70.464			
00:00:08	-1.976	70.464			
00:00:08	-2.038	70.464			
00:00:08	-1.946	70.464			
00:00:08	-1.637	70.464			
00:00:08	-1.803	70.464			
00:00:08	-1.501	70.464			
00:00:08	-1.441	70.464			
00:00:08	-1.543	70.464			
00:00:08	-1.190	70.464			
00:00:08	-1.338	70.464			
00:00:08	-1.035	70.464			
00:00:08	-1.102	70.464			
00:00:08	-1.526	70.464			
00:00:08	-1.436	70.464			
00:00:08	-1.620	70.464			
00:00:08	-1.539	70.464			
00:00:08	-1.335	70.464			
00:00:08	-1.763	70.464			
00:00:08	-1.545	70.464			
00:00:08	-1.879	70.464			
00:00:08	-2.032	70.464			
00:00:08	-1.861	70.464			
00:00:08	-2.210	70.464			
00:00:08	-1.906	70.464			
00:00:08	-1.927	70.464			
00:00:08	-2.041	70.464			
00:00:08	-1.809	70.464			
00:00:08	-2.253	70.464			
00:00:08	-2.027	70.464			
00:00:08	-1.751	70.464			
00:00:08	-1.193	70.464			
00:00:08	0.081	70.464			
00:00:08	0.953	70.464			
00:00:08	2.521	70.464			
00:00:08	4.264	70.464			
00:00:08	5.749	70.464			
00:00:08	7.511	70.464			
00:00:08	8.658	70.464			
00:00:08	9.894	70.464			
00:00:08	11.157	70.464			
00:00:08	11.776	70.464			
00:00:08	12.534	70.464			
00:00:08	12.780	70.464			
00:00:08	12.892	70.464			
00:00:08	13.142	70.464			
00:00:08	12.684	70.464			
00:00:08	12.491	70.464			
00:00:08	11.921	70.464			
00:00:08	11.167	70.464			
00:00:08	10.854	70.464			
00:00:08	9.959	70.464			
00:00:08	9.605	70.464			
00:00:08	9.114	70.459			
00:00:08	8.235	70.459			
00:00:08	7.815	70.459			
00:00:08	7.074	70.459			
00:00:08	6.725	70.464			
00:00:08	6.073	70.464			
00:00:08	5.115	70.464			
00:00:08	4.520	70.464			
00:00:08	3.470	70.464			
00:00:08	2.615	70.464			
00:00:08	1.966	70.464			
00:00:08	0.928	70.464			
00:00:08	0.549	70.464			
00:00:08	-0.115	70.464			
00:00:08	-0.542	70.464			
00:00:08	-0.549	70.464			
00:00:08	-1.028	70.464			
00:00:08	-0.934	70.464			
00:00:08	-1.078	70.464			
00:00:08	-1.155	70.464			
00:00:08	-0.828	70.464			
00:00:08	-0.904	70.464			
00:00:08	-0.486	70.464			
00:00:08	-0.318	70.464			
00:00:08	-0.372	70.464			
00:00:08	-0.054	70.464			
00:00:08	-0.205	70.464			
00:00:08	-0.280	70.464			
00:00:08	-0.220	70.464			
00:00:08	-0.637	70.464			
00:00:08	-0.450	70.464			
00:00:08	-0.803	70.464			
00:00:08	-1.056	70.464			
00:00:08	-0.932	70.464			
00:00:08	-1.337	70.464			
00:00:08	-1.251	70.464			
00:00:08	-1.327	70.464			
00:00:08	-1.556	70.464			
00:00:08	-1.542	70.464			
00:00:08	-2.039	70.464			
00:00:08	-1.939	70.464			
00:00:08	-2.116	70.464			
00:00:08	-2.487	70.464			
00:00:08	-2.375	70.464			
00:00:08	-2.687	70.464			
00:00:08	-2.732	70.464			
00:00:08	-2.575	70.464			
00:00:08	-2.841	70.464			
00:00:09	-2.482	70.464			
00:00:09	-2.570	70.464			
00:00:09	-2.476	70.464			
00:00:09	-2.299	70.464			
00:00:09	-2.628	70.464			
00:00:09	-2.391	70.464			
00:00:09	-2.570	70.464			
00:00:09	-2.607	70.464			
00:00:09	-2.372	70.464			
00:00:09	-2.665	70.464			
00:00:09	-2.525	70.464			
00:00:09	-2.595	70.464			
00:00:09	-2.671	70.464			
00:00:09	-2.312	70.464			
00:00:09	-2.545	70.464			
00:00:09	-2.437	70.464			
00:00:09	-2.284	70.464			
00:00:09	-2.393	70.464			
00:00:09	-1.961	70.464			
00:00:09	-2.072	70.464			
00:00:09	-1.863	70.464			
00:00:09	-1.701	70.464			
00:00:09	-2.014	70.464			
00:00:09	-1.735	70.464			
00:00:09	-1.890	70.464			
00:00:09	-2.013	70.464			
00:00:09	-1.878	70.464			
00:00:09	-2.202	70.464			
00:00:09	-2.017	70.464			
00:00:09	-2.025	70.464			
00:00:09	-2.078	70.464			
00:00:09	-1.925	70.464			
00:00:09	-2.209	70.464			
00:00:09	-2.075	70.464			
00:00:09	-2.098	70.464			
00:00:09	-2.414	70.464			
00:00:09	-2.234	70.464			
00:00:09	-2.560	70.464			
00:00:09	-2.359	70.464			
00:00:09	-1.814	70.464			
00:00:09	-1.470	70.464			
00:00:09	-0.245	70.464			
00:00:09	0.607	70.464			
00:00:09	1.919	70.464			
00:00:09	3.553	70.464			
00:00:09	4.911	70.464			
00:00:09	6.876	70.464			
00:00:09	8.381	70.464			
00:00:09	9.959	70.464			
00:00:09	11.526	70.464			
00:00:09	12.399	70.464			
00:00:09	13.486	70.464			
00:00:09	14.059	70.464			
00:00:09	14.161	70.464			
00:00:09	14.479	70.464			
00:00:09	14.200	70.464			
00:00:09	14.082	70.464			
00:00:09	13.829	70.464			
00:00:09	13.176	70.464			
00:00:09	12.908	70.464			
00:00:09	12.121	70.464			
00:00:09	11.457	70.464			
00:00:09	10.898	70.464			
00:00:09	9.986	70.464			
00:00:09	9.686	69.189			
00:00:09	8.915	69.189			
00:00:09	8.183	69.189			
00:00:09	7.705	69.189			
00:00:09	6.588	69.194			
00:00:09	6.018	69.194			
00:00:09	5.103	69.194			
00:00:09	4.221	69.194			
00:00:09	3.554	69.194			
00:00:09	2.288	69.194			
00:00:09	1.673	69.194			
00:00:09	0.849	69.194			
00:00:09	0.088	69.194			
00:00:09	0.009	69.194			
00:00:09	-0.510	69.194			
00:00:09	-0.591	69.194			
00:00:09	-0.713	69.194			
00:00:09	-0.957	69.194			
00:00:09	-0.591	69.194			
00:00:09	-0.597	69.194			
00:00:09	-0.480	69.194			
00:00:09	-0.142	69.194			
00:00:09	-0.425	69.194			
00:00:09	-0.247	69.194			
00:00:09	-0.429	69.194			
00:00:09	-0.516	69.194			
00:00:09	-0.394	69.194			
00:00:09	-0.630	69.194			
00:00:09	-0.527	69.194			
00:00:09	-0.817	69.194			
00:00:09	-1.153	69.194			
00:00:09	-1.078	69.194			
00:00:09	-1.458	69.194			
00:00:09	-1.438	69.194			
00:00:09	-1.588	69.194			
00:00:09	-1.961	69.194			
00:00:09	-1.774	69.194			
00:00:09	-2.112	69.194			
00:00:09	-2.101	69.194			
00:00:09	-2.109	69.194			
00:00:09	-2.462	69.194			
00:00:09	-2.250	69.194			
00:00:09	-2.552	69.194			
00:00:09	-2.625	69.194			
00:00:09	-2.580	69.194			
00:00:09	-2.711	69.194			
00:00:09	-2.418	69.194			
00:00:09	-2.579	69.194			
00:00:09	-2.559	69.194			
00:00:09	-2.224	69.194			
00:00:09	-2.424	69.194			
00:00:09	-2.238	69.194			
00:00:09	-2.328	69.194			
00:00:09	-2.575	69.194			
00:00:09	-2.473	69.194			
00:00:09	-2.790	69.194			
00:00:09	-2.556	69.194			
00:00:09	-2.320	69.194			
00:00:09	-2.485	69.194			
00:00:09	-2.099	69.194			
00:00:09	-2.210	69.194			
00:00:09	-2.182	69.194			
00:00:09	-2.208	69.194			
00:00:09	-2.532	69.194			
00:00:10	-2.160	69.194			
00:00:10	-2.250	69.194			
00:00:10	-2.291	69.194			
00:00:10	-2.091	69.194			
00:00:10	-2.109	69.194			
00:00:10	-1.721	69.194			
00:00:10	-1.789	69.194			
00:00:10	-1.919	69.194			
00:00:10	-1.648	69.194			
00:00:10	-1.974	69.194			
00:00:10	-1.640	69.194			
00:00:10	-1.549	69.194			
00:00:10	-1.714	69.194			
00:00:10	-1.567	69.194			
00:00:10	-2.017	69.194			
00:00:10	-2.067	69.194			
00:00:10	-1.963	69.194			
00:00:10	-2.238	69.194			
00:00:10	-1.929	69.194			
00:00:10	-2.154	69.194			
00:00:10	-2.058	69.194			
00:00:10	-1.684	69.194			
00:00:10	-1.661	69.194			
00:00:10	-1.027	69.194			
00:00:10	-0.636	69.194			
00:00:10	0.054	69.194			
00:00:10	1.360	69.194			
00:00:10	2.326	69.194			
00:00:10	4.172	69.194			
00:00:10	5.706	69.194			
00:00:10	7.268	69.194			
00:00:10	9.269	69.194			
00:00:10	10.590	69.194			
00:00:10	12.169	69.194			
00:00:10	13.265	69.194			
00:00:10	13.783	69.194			
00:00:10	14.598	69.194			
00:00:10	14.647	69.194			
00:00:10	14.656	69.194			
00:00:10	14.537	69.194			
00:00:10	13.914	69.194			
00:00:10	13.809	69.194			
00:00:10	13.093	69.194			
00:00:10	12.549	69.194			
00:00:10	12.089	69.194			
00:00:10	11.141	69.194			
00:00:10	10.769	69.194			
00:00:10	9.930	69.194			
00:00:10	9.092	68.571			
00:00:10	8.505	68.571			
00:00:10	7.332	68.571			
00:00:10	6.750	68.571			
00:00:10	6.078	68.576			
00:00:10	5.306	68.576			
00:00:10	4.791	68.576			
00:00:10	3.698	68.576			
00:00:10	2.873	68.576			
00:00:10	1.982	68.576			
00:00:10	0.868	68.576			
00:00:10	0.520	68.576			
00:00:10	-0.323	68.576			
00:00:10	-0.736	68.576			
00:00:10	-0.938	68.576			
00:00:10	-1.423	68.576			
00:00:10	-1.188	68.576			
00:00:10	-1.162	68.576			
00:00:10	-1.151	68.576			
00:00:10	-0.969	68.576			
00:00:10	-1.273	68.576			
00:00:10	-0.893	68.576			
00:00:10	-0.910	68.576			
00:00:10	-0.952	68.576			
00:00:10	-0.601	68.576			
00:00:10	-0.761	68.576			
00:00:10	-0.449	68.576			
00:00:10	-0.333	68.576			
00:00:10	-0.528	68.576			
00:00:10	-0.362	68.576			
00:00:10	-0.723	68.576			
00:00:10	-0.876	68.576			
00:00:10	-1.012	68.576			
00:00:10	-1.467	68.576			
00:00:10	-1.457	68.576			
00:00:10	-1.783	68.576			
00:00:10	-1.817	68.576			
00:00:10	-1.601	68.576			
00:00:10	-1.905	68.576			
00:00:10	-1.755	68.576			
00:00:10	-2.020	68.576			
00:00:10	-2.250	68.576			
00:00:10	-2.156	68.576			
00:00:10	-2.539	68.576			
00:00:10	-2.417	68.576			
00:00:10	-2.612	68.576			
00:00:10	-2.768	68.576			
00:00:10	-2.412	68.576			
00:00:10	-2.493	68.576			
00:00:10	-2.462	68.576			
00:00:10	-2.357	68.576			
00:00:10	-2.600	68.576			
00:00:10	-2.428	68.576			
00:00:10	-2.747	68.576			
00:00:10	-2.560	68.576			
00:00:10	-2.365	68.576			
00:00:10	-2.450	68.576			
00:00:10	-2.235	68.576			
00:00:10	-2.410	68.576			
00:00:10	-2.418	68.576			
00:00:10	-2.205	68.576			
00:00:10	-2.451	68.576			
00:00:10	-2.022	68.576			
00:00:10	-1.941	68.576			
00:00:10	-1.871	68.576			
00:00:10	-1.510	68.576			
00:00:10	-1.746	68.576			
00:00:10	-1.603	68.576			
00:00:10	-1.703	68.576			
00:00:10	-2.073	68.576			
00:00:10	-1.798	68.576			
00:00:10	-2.207	68.576			
00:00:10	-2.137	68.576			
00:00:10	-1.963	68.576			
00:00:10	-2.062	68.576			
00:00:10	-1.820	68.576			
00:00:10	-2.002	68.576			
00:00:10	-2.010	68.576			
00:00:10	-1.858	68.576			
00:00:10	-2.332	68.576			
00:00:11	-2.287	68.576			
00:00:11	-2.632	68.576			
00:00:11	-2.851	68.576			
00:00:11	-2.772	68.576			
00:00:11	-3.087	68.576			
00:00:11	-2.757	68.576			
00:00:11	-2.636	68.576			
00:00:11	-2.425	68.576			
00:00:11	-1.743	68.576			
00:00:11	-1.229	68.576			
00:00:11	0.162	68.576			
00:00:11	1.488	68.576			
00:00:11	2.771	68.576			
00:00:11	4.691	68.576			
00:00:11	6.237	68.576			
00:00:11	8.148	68.576			
00:00:11	9.969	68.576			
00:00:11	11.209	68.576			
00:00:11	12.935	68.576			
00:00:11	13.755	68.576			
00:00:11	14.262	68.576			
00:00:11	14.660	68.576			
00:00:11	14.440	68.576			
00:00:11	14.414	68.576			
00:00:11	13.927	68.576			
00:00:11	13.421	68.576			
00:00:11	13.215	68.576			
00:00:11	12.259	68.576			
00:00:11	11.797	68.576			
00:00:11	11.053	68.576			
00:00:11	10.227	68.576			
00:00:11	9.822	68.576			
00:00:11	8.729	68.571			
00:00:11	8.005	68.571			
00:00:11	7.343	68.571			
00:00:11	6.595	68.571			
00:00:11	6.135	68.576			
00:00:11	5.145	68.576			
00:00:11	4.269	68.576			
00:00:11	3.453	68.576			
00:00:11	2.432	68.576			
00:00:11	1.937	68.576			
00:00:11	1.181	68.576			
00:00:11	0.473	68.576			
00:00:11	-0.008	68.576			
00:00:11	-0.892	68.576			
00:00:11	-1.073	68.576			
00:00:11	-1.357	68.576			
00:00:11	-1.545	68.576			
00:00:11	-1.243	68.576			
00:00:11	-1.478	68.576			
00:00:11	-1.147	68.576			
00:00:11	-1.060	68.576			
00:00:11	-1.053	68.576			
00:00:11	-0.589	68.576			
00:00:11	-0.614	68.576			
00:00:11	-0.299	68.576			
00:00:11	-0.132	68.576			
00:00:11	-0.323	68.576			
00:00:11	-0.182	68.576			
00:00:11	-0.417	68.576			
00:00:11	-0.516	68.576			
00:00:11	-0.333	68.576			
00:00:11	-0.748	68.576			
00:00:11	-0.792	68.576			
00:00:11	-1.061	68.576			
00:00:11	-1.145	68.576			
00:00:11	-0.903	68.576			
00:00:11	-1.344	68.576			
00:00:11	-1.316	68.576			
00:00:11	-1.615	68.576			
00:00:11	-1.863	68.576			
00:00:11	-1.696	68.576			
00:00:11	-2.189	68.576			
00:00:11	-2.060	68.576			
00:00:11	-2.169	68.576			
00:00:11	-2.402	68.576			
00:00:11	-2.235	68.576			
00:00:11	-2.523	68.576			
00:00:11	-2.472	68.576			
00:00:11	-2.364	68.576			
00:00:11	-2.783	68.576			
00:00:11	-2.625	68.576			
00:00:11	-2.825	68.576			
00:00:11	-2.963	68.576			
00:00:11	-2.735	68.576			
00:00:11	-2.895	68.576			
00:00:11	-2.698	68.576			
00:00:11	-2.762	68.576			
00:00:11	-2.777	68.576			
00:00:11	-2.390	68.576			
00:00:11	-2.663	68.576			
00:00:11	-2.502	68.576			
00:00:11	-2.479	68.576			
00:00:11	-2.584	68.576			
00:00:11	-2.100	68.576			
00:00:11	-2.026	68.576			
00:00:11	-1.674	68.576			
00:00:11	-1.396	68.576			
00:00:11	-1.714	68.576			
00:00:11	-1.561	68.576			
00:00:11	-1.867	68.576			
00:00:11	-1.825	68.576			
00:00:11	-1.673	68.576			
00:00:11	-2.149	68.576			
00:00:11	-1.876	68.576			
00:00:11	-1.873	68.576			
00:00:11	-2.002	68.576			
00:00:11	-1.708	68.576			
00:00:11	-2.029	68.576			
00:00:11	-1.985	68.576			
00:00:11	-2.273	68.576			
00:00:11	-2.559	68.576			
00:00:11	-2.381	68.576			
00:00:11	-2.555	68.576			
00:00:11	-2.295	68.576			
00:00:11	-2.213	68.576			
00:00:11	-2.396	68.576			
00:00:11	-1.786	68.576			
00:00:11	-1.616	68.576			
00:00:11	-0.897	68.576			
00:00:11	0.211	68.576			
00:00:11	1.248	68.576			
00:00:11	3.043	68.576			
00:00:11	4.675	68.576			
00:00:11	6.544	68.576			
00:00:11	8.653	68.576			
00:00:11	10.055	68.576			
00:00:12	11.676	68.576			
00:00:12	12.687	68.576			
00:00:12	13.329	68.576			
00:00:12	14.006	68.576			
00:00:12	14.114	68.576			
00:00:12	14.226	68.576			
00:00:12	14.096	68.576			
00:00:12	13.618	68.576			
00:00:12	13.542	68.576			
00:00:12	12.634	68.576			
00:00:12	12.120	68.576			
00:00:12	11.564	68.576			
00:00:12	10.650	68.576			
00:00:12	10.153	68.576			
00:00:12	9.174	68.576			
00:00:12	8.470	68.576			
00:00:12	7.718	69.189			
00:00:12	6.591	69.189			
00:00:12	6.015	69.189			
00:00:12	5.211	69.189			
00:00:12	4.418	69.194			
00:00:12	3.876	69.194			
00:00:12	2.880	69.194			
00:00:12	2.231	69.194			
00:00:12	1.308	69.194			
00:00:12	0.270	69.194			
00:00:12	-0.208	69.194			
00:00:12	-1.041	69.194			
00:00:12	-1.245	69.194			
00:00:12	-1.405	69.194			
00:00:12	-1.626	69.194			
00:00:12	-1.435	69.194			
00:00:12	-1.579	69.194			
00:00:12	-1.211	69.194			
00:00:12	-0.964	69.194			
00:00:12	-1.067	69.194			
00:00:12	-0.640	69.194			
00:00:12	-0.590	69.194			
00:00:12	-0.241	69.194			
00:00:12	0.152	69.194			
00:00:12	-0.099	69.194			
00:00:12	0.026	69.194			
00:00:12	-0.084	69.194			
00:00:12	-0.172	69.194			
00:00:12	-0.111	69.194			
00:00:12	-0.592	69.194			
00:00:12	-0.688	69.194			
00:00:12	-0.817	69.194			
00:00:12	-1.208	69.194			
00:00:12	-1.134	69.194			
00:00:12	-1.590	69.194			
00:00:12	-1.622	69.194			
00:00:12	-1.774	69.194			
00:00:12	-2.103	69.194			
00:00:12	-1.927	69.194			
00:00:12	-2.230	69.194			
00:00:12	-2.234	69.194			
00:00:12	-2.277	69.194			
00:00:12	-2.774	69.194			
00:00:12	-2.671	69.194			
00:00:12	-3.023	69.194			
00:00:12	-3.122	69.194			
00:00:12	-2.947	69.194			
00:00:12	-3.308	69.194			
00:00:12	-3.145	69.194			
00:00:12	-3.276	69.194			
00:00:12	-3.471	69.194			
00:00:12	-3.135	69.194			
00:00:12	-3.384	69.194			
00:00:12	-3.284	69.194			
00:00:12	-3.168	69.194			
00:00:12	-3.248	69.194			
00:00:12	-2.748	69.194			
00:00:12	-2.915	69.194			
00:00:12	-2.866	69.194			
00:00:12	-2.730	69.194			
00:00:12	-2.825	69.194			
00:00:12	-2.266	69.194			
00:00:12	-2.259	69.194			
00:00:12	-2.024	69.194			
00:00:12	-1.656	69.194			
00:00:12	-1.887	69.194			
00:00:12	-1.592	69.194			
00:00:12	-1.733	69.194			
00:00:12	-1.856	69.194			
00:00:12	-1.702	69.194			
00:00:12	-2.089	69.194			
00:00:12	-1.987	69.194			
00:00:12	-2.056	69.194			
00:00:12	-2.121	69.194			
00:00:12	-1.846	69.194			
00:00:12	-1.997	69.194			
00:00:12	-1.780	69.194			
00:00:12	-1.845	69.194			
00:00:12	-2.190	69.194			
00:00:12	-2.160	69.194			
00:00:12	-2.495	69.194			
00:00:12	-2.385	69.194			
00:00:12	-2.252	69.194			
00:00:12	-2.107	69.194			
00:00:12	-1.231	69.194			
00:00:12	-0.399	69.194			
00:00:12	1.127	69.194			
00:00:12	3.046	69.194			
00:00:12	4.459	69.194			
00:00:12	6.377	69.194			
00:00:12	8.009	69.194			
00:00:12	9.533	69.194			
00:00:12	11.272	69.194			
00:00:12	12.479	69.194			
00:00:12	13.876	69.194			
00:00:12	14.765	69.194			
00:00:12	15.023	69.194			
00:00:12	15.421	69.194			
00:00:12	15.114	69.194			
00:00:12	14.894	69.194			
00:00:12	14.637	69.194			
00:00:12	13.852	69.194			
00:00:12	13.542	69.194			
00:00:12	12.599	69.194			
00:00:12	11.973	69.194			
00:00:12	11.276	69.194			
00:00:12	10.104	69.194			
00:00:12	9.380	69.194			
00:00:12	8.365	71.111			
00:00:12	7.630	71.111			
00:00:12	7.161	71.111			
00:00:12	6.152	71.111			
00:00:13	5.458	71.116			
00:00:13	4.562	71.116			
00:00:13	3.588	71.116			
00:00:13	3.052	71.116			
00:00:13	1.982	71.116			
00:00:13	1.273	71.116			
00:00:13	0.575	71.116			
00:00:13	-0.329	71.116			
00:00:13	-0.527	71.116			
00:00:13	-1.095	71.116			
00:00:13	-1.333	71.116			
00:00:13	-1.202	71.116			
00:00:13	-1.496	71.116			
00:00:13	-1.143	71.116			
00:00:13	-1.266	71.116			
00:00:13	-1.111	71.116			
00:00:13	-0.781	71.116			
00:00:13	-0.939	71.116			
00:00:13	-0.537	71.116			
00:00:13	-0.628	71.116			
00:00:13	-0.593	71.116			
00:00:13	-0.202	71.116			
00:00:13	-0.406	71.116			
00:00:13	-0.106	71.116			
00:00:13	-0.196	71.116			
00:00:13	-0.416	71.116			
00:00:13	-0.280	71.116			
00:00:13	-0.924	71.116			
00:00:13	-0.924	71.116			
00:00:13	-1.056	71.116			
00:00:13	-1.551	71.116			
00:00:13	-1.546	71.116			
00:00:13	-2.017	71.116			
00:00:13	-2.166	71.116			
00:00:13	-2.117	71.116			
00:00:13	-2.585	71.116			
00:00:13	-2.444	71.116			
00:00:13	-2.598	71.116			
00:00:13	-2.687	71.116			
00:00:13	-2.737	71.116			
00:00:13	-3.187	71.116			
00:00:13	-3.168	71.116			
00:00:13	-3.345	71.116			
00:00:13	-3.450	71.116			
00:00:13	-3.275	71.116			
00:00:13	-3.565	71.116			
00:00:13	-3.305	71.116			
00:00:13	-3.098	71.116			
00:00:13	-3.168	71.116			
00:00:13	-2.933	71.116			
00:00:13	-3.119	71.116			
00:00:13	-3.096	71.116			
00:00:13	-2.752	71.116			
00:00:13	-2.867	71.116			
00:00:13	-2.570	71.116			
00:00:13	-2.569	71.116			
00:00:13	-2.504	71.116			
00:00:13	-2.200	71.116			
00:00:13	-2.348	71.116			
00:00:13	-2.048	71.116			
00:00:13	-2.063	71.116			
00:00:13	-1.985	71.116			
00:00:13	-1.817	71.116			
00:00:13	-2.153	71.116			
00:00:13	-1.901	71.116			
00:00:13	-1.680	71.116			
00:00:13	-1.640	71.116			
00:00:13	-1.203	71.116			
00:00:13	-1.518	71.116			
00:00:13	-1.602	71.116			
00:00:13	-1.731	71.116			
00:00:13	-2.092	71.116			
00:00:13	-1.790	71.116			
00:00:13	-2.055	71.116			
00:00:13	-2.180	71.116			
00:00:13	-2.129	71.116			
00:00:13	-2.433	71.116			
00:00:13	-2.204	71.116			
00:00:13	-2.338	71.116			
00:00:13	-2.164	71.116			
00:00:13	-1.625	71.116			
00:00:13	-1.375	71.116			
00:00:13	-0.420	71.116			
00:00:13	0.725	71.116			
00:00:13	2.183	71.116			
00:00:13	4.210	71.116			
00:00:13	5.736	71.116			
00:00:13	7.896	71.116			
00:00:13	9.760	71.116			
00:00:13	11.284	71.116			
00:00:13	12.935	71.116			
00:00:13	13.815	71.116			
00:00:13	14.647	71.116			
00:00:13	15.134	71.116			
00:00:13	14.976	71.116			
00:00:13	15.207	71.116			
00:00:13	14.807	71.116			
00:00:13	14.514	71.116			
00:00:13	14.099	71.116			
00:00:13	13.133	71.116			
00:00:13	12.565	71.116			
00:00:13	11.523	71.116			
00:00:13	10.622	71.116			
00:00:13	10.027	71.116			
00:00:13	8.887	69.818			
00:00:13	8.241	69.818			
00:00:13	7.368	69.818			
00:00:13	6.531	69.818			
00:00:13	6.088	69.823			
00:00:13	5.134	69.823			
00:00:13	4.451	69.823			
00:00:13	3.551	69.823			
00:00:13	2.464	69.823			
00:00:13	1.851	69.823			
00:00:13	0.892	69.823			
00:00:13	0.349	69.823			
00:00:13	-0.171	69.823			
00:00:13	-1.037	69.823			
00:00:13	-1.233	69.823			
00:00:13	-1.702	69.823			
00:00:13	-1.788	69.823			
00:00:13	-1.426	69.823			
00:00:13	-1.663	69.823			
00:00:13	-1.357	69.823			
00:00:13	-1.332	69.823			
00:00:13	-1.313	69.823			
00:00:13	-0.819	69.823			
00:00:13	-1.027	69.823			
00:00:14	-0.722	69.823			
00:00:14	-0.525	69.823			
00:00:14	-0.698	69.823			
00:00:14	-0.345	69.823			
00:00:14	-0.510	69.823			
00:00:14	-0.404	69.823			
00:00:14	-0.458	69.823			
00:00:14	-0.911	69.823			
00:00:14	-0.628	69.823			
00:00:14	-0.946	69.823			
00:00:14	-1.047	69.823			
00:00:14	-1.101	69.823			
00:00:14	-1.721	69.823			
00:00:14	-1.741	69.823			
00:00:14	-2.147	69.823			
00:00:14	-2.249	69.823			
00:00:14	-2.062	69.823			
00:00:14	-2.543	69.823			
00:00:14	-2.613	69.823			
00:00:14	-2.691	69.823			
00:00:14	-2.983	69.823			
00:00:14	-2.867	69.823			
00:00:14	-3.032	69.823			
00:00:14	-2.807	69.823			
00:00:14	-2.880	69.823			
00:00:14	-3.266	69.823			
00:00:14	-2.989	69.823			
00:00:14	-3.171	69.823			
00:00:14	-3.111	69.823			
00:00:14	-3.073	69.823			
00:00:14	-3.176	69.823			
00:00:14	-2.657	69.823			
00:00:14	-2.756	69.823			
00:00:14	-2.694	69.823			
00:00:14	-2.349	69.823			
00:00:14	-2.598	69.823			
00:00:14	-2.286	69.823			
00:00:14	-2.241	69.823			
00:00:14	-2.229	69.823			
00:00:14	-1.992	69.823			
00:00:14	-2.186	69.823			
00:00:14	-1.745	69.823			
00:00:14	-1.560	69.823			
00:00:14	-1.535	69.823			
00:00:14	-1.136	69.823			
00:00:14	-1.268	69.823			
00:00:14	-1.163	69.823			
00:00:14	-1.133	69.823			
00:00:14	-1.438	69.823			
00:00:14	-1.267	69.823			
00:00:14	-1.513	69.823			
00:00:14	-1.542	69.823			
00:00:14	-1.424	69.823			
00:00:14	-1.654	69.823			
00:00:14	-1.450	69.823			
00:00:14	-1.692	69.823			
00:00:14	-1.855	69.823			
00:00:14	-1.883	69.823			
00:00:14	-2.448	69.823			
00:00:14	-2.276	69.823			
00:00:14	-2.267	69.823			
00:00:14	-2.212	69.823			
00:00:14	-1.494	69.823			
00:00:14	-1.218	69.823			
00:00:14	-0.154	69.823			
00:00:14	1.207	69.823			
00:00:14	2.577	69.823			
00:00:14	4.804	69.823			
00:00:14	6.491	69.823			
00:00:14	8.405	69.823			
00:00:14	10.265	69.823			
00:00:14	11.633	69.823			
00:00:14	13.225	69.823			
00:00:14	14.026	69.823			
00:00:14	14.609	69.823			
00:00:14	15.112	69.823			
00:00:14	15.076	69.823			
00:00:14	15.168	69.823			
00:00:14	14.587	69.823			
00:00:14	13.879	69.823			
00:00:14	13.431	69.823			
00:00:14	12.438	69.823			
00:00:14	11.780	69.823			
00:00:14	10.799	69.823			
00:00:14	9.780	70.459			
00:00:14	9.089	70.459			
00:00:14	7.910	70.459			
00:00:14	7.138	70.459			
00:00:14	6.475	70.464			
00:00:14	5.641	70.464			
00:00:14	5.116	70.464			
00:00:14	4.074	70.464			
00:00:14	3.305	70.464			
00:00:14	2.679	70.464			
00:00:14	1.615	70.464			
00:00:14	1.103	70.464			
00:00:14	0.301	70.464			
00:00:14	-0.389	70.464			
00:00:14	-0.624	70.464			
00:00:14	-1.373	70.464			
00:00:14	-1.404	70.464			
00:00:14	-1.783	70.464			
00:00:14	-1.992	70.464			
00:00:14	-1.760	70.464			
00:00:14	-1.949	70.464			
00:00:14	-1.639	70.464			
00:00:14	-1.402	70.464			
00:00:14	-1.303	70.464			
00:00:14	-0.809	70.464			
00:00:14	-0.897	70.464			
00:00:14	-0.702	70.464			
00:00:14	-0.590	70.464			
00:00:14	-0.758	70.464			
00:00:14	-0.409	70.464			
00:00:14	-0.533	70.464			
00:00:14	-0.547	70.464			
00:00:14	-0.263	70.464			
00:00:14	-0.564	70.464			
00:00:14	-0.487	70.464			
00:00:14	-0.721	70.464			
00:00:14	-1.019	70.464			
00:00:14	-1.219	70.464			
00:00:14	-1.883	70.464			
00:00:14	-2.043	70.464			
00:00:14	-2.153	70.464			
00:00:14	-2.404	70.464			
00:00:14	-2.167	70.464			
00:00:14	-2.622	70.464			
00:00:15	-2.698	70.464			
00:00:15	-2.959	70.464			
00:00:15	-3.322	70.464			
00:00:15	-3.096	70.464			
00:00:15	-3.363	70.464			
00:00:15	-3.413	70.464			
00:00:15	-3.479	70.464			
00:00:15	-3.726	70.464			
00:00:15	-3.424	70.464			
00:00:15	-3.484	70.464			
00:00:15	-3.528	70.464			
00:00:15	-3.318	70.464			
00:00:15	-3.624	70.464			
00:00:15	-3.526	70.464			
00:00:15	-3.509	70.464			
00:00:15	-3.449	70.464			
00:00:15	-2.979	70.464			
00:00:15	-3.142	70.464			
00:00:15	-2.849	70.464			
00:00:15	-2.729	70.464			
00:00:15	-2.667	70.464			
00:00:15	-2.129	70.464			
00:00:15	-2.240	70.464			
00:00:15	-1.975	70.464			
00:00:15	-1.878	70.464			
00:00:15	-2.040	70.464			
00:00:15	-1.743	70.464			
00:00:15	-1.817	70.464			
00:00:15	-1.804	70.464			
00:00:15	-1.617	70.464			
00:00:15	-1.907	70.464			
00:00:15	-1.742	70.464			
00:00:15	-1.919	70.464			
00:00:15	-2.002	70.464			
00:00:15	-2.029	70.464			
00:00:15	-2.276	70.464			
00:00:15	-2.233	70.464			
00:00:15	-2.309	70.464			
00:00:15	-2.437	70.464			
00:00:15	-2.276	70.464			
00:00:15	-2.584	70.464			
00:00:15	-2.400	70.464			
00:00:15	-2.167	70.464			
00:00:15	-1.730	70.464			
00:00:15	-0.505	70.464			
00:00:15	0.545	70.464			
00:00:15	2.142	70.464			
00:00:15	3.915	70.464			
00:00:15	5.418	70.464			
00:00:15	7.558	70.464			
00:00:15	9.205	70.464			
00:00:15	10.949	70.464			
00:00:15	12.572	70.464			
00:00:15	13.385	70.464			
00:00:15	14.301	70.464			
00:00:15	14.695	70.464			
00:00:15	14.731	70.464			
00:00:15	14.983	70.464			
00:00:15	14.473	70.464			
00:00:15	14.267	70.464			
00:00:15	13.795	70.464			
00:00:15	12.924	70.464			
00:00:15	12.408	70.464			
00:00:15	11.500	70.464			
00:00:15	10.834	70.464			
00:00:15	10.094	70.464			
00:00:15	8.844	70.464			
00:00:15	8.278	70.464			
00:00:15	7.178	70.459			
00:00:15	6.393	70.459			
00:00:15	5.705	70.459			
00:00:15	4.443	70.459			
00:00:15	3.942	70.464			
00:00:15	3.130	70.464			
00:00:15	2.106	70.464			
00:00:15	1.546	70.464			
00:00:15	0.467	70.464			
00:00:15	-0.044	70.464			
00:00:15	-0.661	70.464			
00:00:15	-1.399	70.464			
00:00:15	-1.566	70.464			
00:00:15	-2.068	70.464			
00:00:15	-2.067	70.464			
00:00:15	-2.020	70.464			
00:00:15	-2.294	70.464			
00:00:15	-1.886	70.464			
00:00:15	-1.950	70.464			
00:00:15	-1.709	70.464			
00:00:15	-1.379	70.464			
00:00:15	-1.251	70.464			
00:00:15	-0.832	70.464			
00:00:15	-0.916	70.464			
00:00:15	-0.917	70.464			
00:00:15	-0.450	70.464			
00:00:15	-0.541	70.464			
00:00:15	-0.182	70.464			
00:00:15	-0.290	70.464			
00:00:15	-0.461	70.464			
00:00:15	-0.386	70.464			
00:00:15	-0.772	70.464			
00:00:15	-0.725	70.464			
00:00:15	-0.833	70.464			
00:00:15	-1.119	70.464			
00:00:15	-1.057	70.464			
00:00:15	-1.543	70.464			
00:00:15	-1.695	70.464			
00:00:15	-1.818	70.464			
00:00:15	-2.165	70.464			
00:00:15	-2.102	70.464			
00:00:15	-2.465	70.464			
00:00:15	-2.625	70.464			
00:00:15	-2.637	70.464			
00:00:15	-2.998	70.464			
00:00:15	-2.787	70.464			
00:00:15	-3.064	70.464			
00:00:15	-3.158	70.464			
00:00:15	-3.110	70.464			
00:00:15	-3.357	70.464			
00:00:15	-3.184	70.464			
00:00:15	-3.313	70.464			
00:00:15	-3.404	70.464			
00:00:15	-3.173	70.464			
00:00:15	-3.395	70.464			
00:00:15	-2.960	70.464			
00:00:15	-2.775	70.464			
00:00:15	-2.743	70.464			
00:00:15	-2.304	70.464			
00:00:15	-2.536	70.464			
00:00:16	-2.398	73.851			
00:00:16	-2.222	73.851			
00:00:16	-2.292	73.851			
00:00:16	-1.851	73.851			
00:00:16	-1.970	73.851			
00:00:16	-1.948	73.851			
00:00:16	-1.842	73.851			
00:00:16	-2.104	73.851			
00:00:16	-1.862	73.851			
00:00:16	-2.022	73.851			
00:00:16	-2.056	73.851			
00:00:16	-1.796	73.851			
00:00:16	-2.217	73.851			
00:00:16	-2.018	73.851			
00:00:16	-2.205	73.851			
00:00:16	-2.348	73.851			
00:00:16	-1.989	73.851			
00:00:16	-2.184	73.851			
00:00:16	-1.665	73.851			
00:00:16	-1.140	73.851			
00:00:16	-0.777	73.851			
00:00:16	0.471	73.851			
00:00:16	1.593	73.851			
00:00:16	3.312	73.851			
00:00:16	5.165	73.851			
00:00:16	6.681	73.851			
00:00:16	8.872	73.851			
00:00:16	10.330	73.851			
00:00:16	11.730	73.851			
00:00:16	13.126	73.851			
00:00:16	13.638	73.851			
00:00:16	14.544	73.851			
00:00:16	14.753	73.851			
00:00:16	14.648	73.851			
00:00:16	14.628	73.851			
00:00:16	13.792	73.851			
00:00:16	13.386	73.851			
00:00:16	12.623	73.851			
00:00:16	11.676	73.851			
00:00:16	11.139	73.851			
00:00:16	9.830	73.851			
00:00:16	9.028	73.851			
00:00:16	8.227	73.851			
00:00:16	7.228	73.851			
00:00:16	6.803	60.952			
00:00:16	5.854	60.952			
00:00:16	4.919	60.952			
00:00:16	4.055	60.952			
00:00:16	2.828	60.957			
00:00:16	2.209	60.957			
00:00:16	1.205	60.957			
00:00:16	0.291	60.957			
00:00:16	-0.239	60.957			
00:00:16	-0.987	60.957			
00:00:16	-1.168	60.957			
00:00:16	-1.540	60.957			
00:00:16	-1.906	60.957			
00:00:16	-1.702	60.957			
00:00:16	-2.086	60.957			
00:00:16	-1.727	60.957			
00:00:16	-1.324	60.957			
00:00:16	-1.238	60.957			
00:00:16	-0.635	60.957			
00:00:16	-0.497	60.957			
00:00:16	-0.213	60.957			
00:00:16	0.063	60.957			
00:00:16	-0.012	60.957			
00:00:16	0.322	60.957			
00:00:16	0.208	60.957			
00:00:16	0.173	60.957			
00:00:16	0.332	60.957			
00:00:16	-0.031	60.957			
00:00:16	0.088	60.957			
00:00:16	-0.076	60.957			
00:00:16	-0.236	60.957			
00:00:16	-0.294	60.957			
00:00:16	-0.837	60.957			
00:00:16	-0.908	60.957			
00:00:16	-1.056	60.957			
00:00:16	-1.294	60.957			
00:00:16	-1.161	60.957			
00:00:16	-1.632	60.957			
00:00:16	-1.856	60.957			
00:00:16	-1.964	60.957			
00:00:16	-2.246	60.957			
00:00:16	-2.079	60.957			
00:00:16	-2.331	60.957			
00:00:16	-2.284	60.957			
00:00:16	-2.131	60.957			
00:00:16	-2.334	60.957			
00:00:16	-2.226	60.957			
00:00:16	-2.428	60.957			
00:00:16	-2.604	60.957			
00:00:16	-2.470	60.957			
00:00:16	-2.762	60.957			
00:00:16	-2.637	60.957			
00:00:16	-2.721	60.957			
00:00:16	-2.749	60.957			
00:00:16	-2.408	60.957			
00:00:16	-2.527	60.957			
00:00:16	-2.247	60.957			
00:00:16	-2.136	60.957			
00:00:16	-2.192	60.957			
00:00:16	-1.715	60.957			
00:00:16	-1.722	60.957			
00:00:16	-1.395	60.957			
00:00:16	-1.139	60.957			
00:00:16	-1.379	60.957			
00:00:16	-1.208	60.957			
00:00:16	-1.488	60.957			
00:00:16	-1.437	60.957			
00:00:16	-0.964	60.957			
00:00:16	-1.216	60.957			
00:00:16	-1.150	60.957			
00:00:16	-1.423	60.957			
00:00:16	-1.638	60.957			
00:00:16	-1.295	60.957			
00:00:16	-1.384	60.957			
00:00:16	-0.969	60.957			
00:00:16	-0.499	60.957			
00:00:16	0.065	60.957			
00:00:16	1.428	60.957			
00:00:16	2.607	60.957			
00:00:16	4.415	60.957			
00:00:16	6.280	60.957			
00:00:16	7.887	60.957			
00:00:16	9.803	60.957			
00:00:16	11.086	60.957			
00:00:17	12.461	60.957			
00:00:17	13.573	60.957			
00:00:17	13.875	60.957			
00:00:17	14.467	60.957			
00:00:17	14.620	60.957			
00:00:17	14.424	60.957			
00:00:17	14.231	60.957			
00:00:17	13.481	60.957			
00:00:17	13.046	60.957			
00:00:17	12.293	60.957			
00:00:17	11.265	60.957			
00:00:17	10.633	60.957			
00:00:17	9.490	77.576			
00:00:17	8.809	77.576			
00:00:17	7.923	77.576			
00:00:17	6.771	77.576			
00:00:17	6.232	77.581			
00:00:17	5.224	77.581			
00:00:17	4.471	77.581			
00:00:17	3.534	77.581			
00:00:17	2.331	77.581			
00:00:17	1.711	77.581			
00:00:17	0.725	77.581			
00:00:17	0.129	77.581			
00:00:17	-0.363	77.581			
00:00:17	-1.112	77.581			
00:00:17	-1.275	77.581			
00:00:17	-1.740	77.581			
00:00:17	-1.934	77.581			
00:00:17	-1.622	77.581			
00:00:17	-1.628	77.581			
00:00:17	-1.172	77.581			
00:00:17	-0.966	77.581			
00:00:17	-0.856	77.581			
00:00:17	-0.518	77.581			
00:00:17	-0.554	77.581			
00:00:17	-0.141	77.581			
00:00:17	0.199	77.581			
00:00:17	0.150	77.581			
00:00:17	0.517	77.581			
00:00:17	0.326	77.581			
00:00:17	0.251	77.581			
00:00:17	0.254	77.581			
00:00:17	-0.061	77.581			
00:00:17	0.030	77.581			
00:00:17	-0.432	77.581			
00:00:17	-0.642	77.581			
00:00:17	-0.586	77.581			
00:00:17	-0.950	77.581			
00:00:17	-0.891	77.581			
00:00:17	-1.142	77.581			
00:00:17	-1.296	77.581			
00:00:17	-1.179	77.581			
00:00:17	-1.584	77.581			
00:00:17	-1.599	77.581			
00:00:17	-1.630	77.581			
00:00:17	-1.926	77.581			
00:00:17	-1.876	77.581			
00:00:17	-2.336	77.581			
00:00:17	-2.378	77.581			
00:00:17	-2.309	77.581			
00:00:17	-2.411	77.581			
00:00:17	-2.126	77.581			
00:00:17	-2.212	77.581			
00:00:17	-1.944	77.581			
00:00:17	-1.664	77.581			
00:00:17	-1.711	77.581			
00:00:17	-1.290	77.581			
00:00:17	-1.241	77.581			
00:00:17	-1.115	77.581			
00:00:17	-0.894	77.581			
00:00:17	-1.184	77.581			
00:00:17	-0.963	77.581			
00:00:17	-1.039	77.581			
00:00:17	-1.326	77.581			
00:00:17	-1.143	77.581			
00:00:17	-1.395	77.581			
00:00:17	-1.329	77.581			
00:00:17	-1.328	77.581			
00:00:17	-1.485	77.581			
00:00:17	-1.344	77.581			
00:00:17	-1.712	77.581			
00:00:17	-1.517	77.581			
00:00:17	-1.218	77.581			
00:00:17	-1.352	77.581			
00:00:17	-0.774	77.581			
00:00:17	-0.422	77.581			
00:00:17	0.385	77.581			
00:00:17	1.677	77.581			
00:00:17	2.848	77.581			
00:00:17	4.648	77.581			
00:00:17	6.231	77.581			
00:00:17	7.926	77.581			
00:00:17	9.686	77.581			
00:00:17	10.642	77.581			
00:00:17	11.791	77.581			
00:00:17	12.609	77.581			
00:00:17	12.862	77.581			
00:00:17	13.385	77.581			
00:00:17	13.043	77.581			
00:00:17	12.813	77.581			
00:00:17	12.419	77.581			
00:00:17	11.600	77.581			
00:00:17	11.190	77.581			
00:00:17	10.300	77.581			
00:00:17	9.488	77.581			
00:00:17	8.843	77.581			
00:00:17	7.720	77.581			
00:00:17	7.148	81.702			
00:00:17	6.052	81.702			
00:00:17	5.019	81.702			
00:00:17	4.501	81.702			
00:00:17	3.508	81.707			
00:00:17	2.946	81.707			
00:00:17	1.998	81.707			
00:00:17	1.065	81.707			
00:00:17	0.425	81.707			
00:00:17	-0.733	81.707			
00:00:17	-1.195	81.707			
00:00:17	-1.743	81.707			
00:00:17	-2.262	81.707			
00:00:17	-2.216	81.707			
00:00:17	-2.529	81.707			
00:00:17	-2.368	81.707			
00:00:17	-2.092	81.707			
00:00:17	-2.209	81.707			
00:00:17	-1.698	81.707			
00:00:17	-1.558	81.707			
00:00:18	-1.394	81.707			
00:00:18	-1.036	81.707			
00:00:18	-1.015	81.707			
00:00:18	-0.493	81.707			
00:00:18	-0.346	81.707			
00:00:18	-0.161	81.707			
00:00:18	0.287	81.707			
00:00:18	0.014	81.707			
00:00:18	0.086	81.707			
00:00:18	-0.030	81.707			
00:00:18	-0.314	81.707			
00:00:18	-0.266	81.707			
00:00:18	-0.738	81.707			
00:00:18	-0.759	81.707			
00:00:18	-0.789	81.707			
00:00:18	-0.982	81.707			
00:00:18	-0.835	81.707			
00:00:18	-1.224	81.707			
00:00:18	-1.252	81.707			
00:00:18	-1.257	81.707			
00:00:18	-1.850	81.707			
00:00:18	-1.805	81.707			
00:00:18	-2.163	81.707			
00:00:18	-2.426	81.707			
00:00:18	-2.308	81.707			
00:00:18	-2.563	81.707			
00:00:18	-2.334	81.707			
00:00:18	-2.298	81.707			
00:00:18	-2.482	81.707			
00:00:18	-2.348	81.707			
00:00:18	-2.625	81.707			
00:00:18	-2.426	81.707			
00:00:18	-2.475	81.707			
00:00:18	-2.709	81.707			
00:00:18	-2.480	81.707			
00:00:18	-2.818	81.707			
00:00:18	-2.737	81.707			
00:00:18	-2.494	81.707			
00:00:18	-2.523	81.707			
00:00:18	-2.138	81.707			
00:00:18	-2.212	81.707			
00:00:18	-2.025	81.707			
00:00:18	-1.741	81.707			
00:00:18	-1.992	81.707			
00:00:18	-1.691	81.707			
00:00:18	-1.804	81.707			
00:00:18	-1.734	81.707			
00:00:18	-1.379	81.707			
00:00:18	-1.755	81.707			
00:00:18	-1.664	81.707			
00:00:18	-1.751	81.707			
00:00:18	-1.881	81.707			
00:00:18	-1.527	81.707			
00:00:18	-1.715	81.707			
00:00:18	-1.666	81.707			
00:00:18	-1.752	81.707			
00:00:18	-2.079	81.707			
00:00:18	-1.821	81.707			
00:00:18	-1.902	81.707			
00:00:18	-1.448	81.707			
00:00:18	-0.612	81.707			
00:00:18	0.047	81.707			
00:00:18	1.378	81.707			
00:00:18	2.619	81.707			
00:00:18	4.190	81.707			
00:00:18	6.281	81.707			
00:00:18	7.964	81.707			
00:00:18	10.042	81.707			
00:00:18	11.494	81.707			
00:00:18	12.703	81.707			
00:00:18	14.052	81.707			
00:00:18	14.467	81.707			
00:00:18	15.054	81.707			
00:00:18	15.100	81.707			
00:00:18	14.593	81.707			
00:00:18	14.543	81.707			
00:00:18	13.778	81.707			
00:00:18	13.277	81.707			
00:00:18	12.668	81.707			
00:00:18	11.783	81.707			
00:00:18	11.255	81.707			
00:00:18	10.293	81.707			
00:00:18	9.382	81.707			
00:00:18	8.621	81.707			
00:00:18	7.522	74.563			
00:00:18	6.928	74.563			
00:00:18	5.810	74.563			
00:00:18	4.870	74.563			
00:00:18	4.242	74.568			
00:00:18	3.195	74.568			
00:00:18	2.580	74.568			
00:00:18	1.603	74.568			
00:00:18	0.647	74.568			
00:00:18	0.255	74.568			
00:00:18	-0.693	74.568			
00:00:18	-1.135	74.568			
00:00:18	-1.477	74.568			
00:00:18	-1.978	74.568			
00:00:18	-1.859	74.568			
00:00:18	-2.063	74.568			
00:00:18	-1.914	74.568			
00:00:18	-1.461	74.568			
00:00:18	-1.508	74.568			
00:00:18	-1.006	74.568			
00:00:18	-1.123	74.568			
00:00:18	-1.035	74.568			
00:00:18	-0.675	74.568			
00:00:18	-0.751	74.568			
00:00:18	-0.360	74.568			
00:00:18	-0.364	74.568			
00:00:18	-0.508	74.568			
00:00:18	-0.430	74.568			
00:00:18	-0.866	74.568			
00:00:18	-0.686	74.568			
00:00:18	-0.826	74.568			
00:00:18	-1.157	74.568			
00:00:18	-1.128	74.568			
00:00:18	-1.653	74.568			
00:00:18	-1.773	74.568			
00:00:18	-1.963	74.568			
00:00:18	-2.378	74.568			
00:00:18	-2.203	74.568			
00:00:18	-2.666	74.568			
00:00:18	-2.891	74.568			
00:00:18	-2.838	74.568			
00:00:18	-3.183	74.568			
00:00:18	-2.992	74.568			
00:00:18	-3.184	74.568			
00:00:19	-3.456	74.568			
00:00:19	-3.439	74.568			
00:00:19	-3.932	74.568			
00:00:19	-3.732	74.568			
00:00:19	-3.773	74.568			
00:00:19	-3.918	74.568			
00:00:19	-3.784	74.568			
00:00:19	-4.075	74.568			
00:00:19	-3.998	74.568			
00:00:19	-4.083	74.568			
00:00:19	-4.262	74.568			
00:00:19	-3.900	74.568			
00:00:19	-4.159	74.568			
00:00:19	-3.997	74.568			
00:00:19	-3.742	74.568			
00:00:19	-3.808	74.568			
00:00:19	-3.366	74.568			
00:00:19	-3.380	74.568			
00:00:19	-3.390	74.568			
00:00:19	-3.147	74.568			
00:00:19	-3.477	74.568			
00:00:19	-3.173	74.568			
00:00:19	-3.180	74.568			
00:00:19	-3.307	74.568			
00:00:19	-3.140	74.568			
00:00:19	-3.410	74.568			
00:00:19	-3.183	74.568			
00:00:19	-3.383	74.568			
00:00:19	-3.578	74.568			
00:00:19	-3.380	74.568			
00:00:19	-3.842	74.568			
00:00:19	-3.869	74.568			
00:00:19	-3.898	74.568			
00:00:19	-4.098	74.568			
00:00:19	-3.847	74.568			
00:00:19	-3.884	74.568			
00:00:19	-3.487	74.568			
00:00:19	-2.653	74.568			
00:00:19	-1.946	74.568			
00:00:19	-0.316	74.568			
00:00:19	1.302	74.568			
00:00:19	2.935	74.568			
00:00:19	4.844	74.568			
00:00:19	6.224	74.568			
00:00:19	7.864	74.568			
00:00:19	9.159	74.568			
00:00:19	10.121	74.568			
00:00:19	11.381	74.568			
00:00:19	11.773	74.568			
00:00:19	12.301	74.568			
00:00:19	12.432	74.568			
00:00:19	12.023	74.568			
00:00:19	11.956	74.568			
00:00:19	11.263	74.568			
00:00:19	10.801	74.568			
00:00:19	10.271	74.568			
00:00:19	9.369	74.568			
00:00:19	8.981	74.568			
00:00:19	7.990	74.568			
00:00:19	7.325	74.568			
00:00:19	6.882	73.143			
00:00:19	6.081	73.143			
00:00:19	5.727	73.143			
00:00:19	5.060	73.143			
00:00:19	4.261	73.148			
00:00:19	3.692	73.148			
00:00:19	2.638	73.148			
00:00:19	2.040	73.148			
00:00:19	1.175	73.148			
00:00:19	0.027	73.148			
00:00:19	-0.643	73.148			
00:00:19	-1.535	73.148			
00:00:19	-1.959	73.148			
00:00:19	-2.432	73.148			
00:00:19	-3.050	73.148			
00:00:19	-2.998	73.148			
00:00:19	-3.253	73.148			
00:00:19	-3.065	73.148			
00:00:19	-2.717	73.148			
00:00:19	-2.788	73.148			
00:00:19	-2.489	73.148			
00:00:19	-2.544	73.148			
00:00:19	-2.431	73.148			
00:00:19	-2.100	73.148			
00:00:19	-2.167	73.148			
00:00:19	-1.750	73.148			
00:00:19	-1.748	73.148			
00:00:19	-1.905	73.148			
00:00:19	-1.785	73.148			
00:00:19	-2.155	73.148			
00:00:19	-2.089	73.148			
00:00:19	-2.460	73.148			
00:00:19	-2.948	73.148			
00:00:19	-3.050	73.148			
00:00:19	-3.482	73.148			
00:00:19	-3.493	73.148			
00:00:19	-3.445	73.148			
00:00:19	-3.813	73.148			
00:00:19	-3.634	73.148			
00:00:19	-3.908	73.148			
00:00:19	-3.924	73.148			
00:00:19	-3.810	73.148			
00:00:19	-4.203	73.148			
00:00:19	-4.070	73.148			
00:00:19	-4.423	73.148			
00:00:19	-4.622	73.148			
00:00:19	-4.547	73.148			
00:00:19	-4.911	73.148			
00:00:19	-4.789	73.148			
00:00:19	-4.829	73.148			
00:00:19	-5.012	73.148			
00:00:19	-4.796	73.148			
00:00:19	-5.108	73.148			
00:00:19	-4.938	73.148			
00:00:19	-4.872	73.148			
00:00:19	-5.153	73.148			
00:00:19	-4.955	73.148			
00:00:19	-5.155	73.148			
00:00:19	-5.039	73.148			
00:00:19	-4.815	73.148			
00:00:19	-4.941	73.148			
00:00:19	-4.683	73.148			
00:00:19	-4.966	73.148			
00:00:19	-4.904	73.148			
00:00:19	-4.457	73.148			
00:00:19	-4.705	73.148			
00:00:19	-4.452	73.148			
00:00:19	-4.508	73.148			
00:00:20	-4.547	73.148			
00:00:20	-4.328	73.148			
00:00:20	-4.700	73.148			
00:00:20	-4.489	73.148			
00:00:20	-4.434	73.148			
00:00:20	-4.650	73.148			
00:00:20	-4.541	73.148			
00:00:20	-4.977	73.148			
00:00:20	-4.937	73.148			
00:00:20	-4.898	73.148			
00:00:20	-5.130	73.148			
00:00:20	-4.903	73.148			
00:00:20	-5.137	73.148			
00:00:20	-4.994	73.148			
00:00:20	-4.554	73.148			
00:00:20	-4.396	73.148			
00:00:20	-3.475	73.148			
00:00:20	-2.649	73.148			
00:00:20	-1.527	73.148			
00:00:20	0.096	73.148			
00:00:20	1.451	73.148			
00:00:20	3.304	73.148			
00:00:20	4.837	73.148			
00:00:20	6.098	73.148			
00:00:20	7.614	73.148			
00:00:20	8.336	73.148			
00:00:20	9.051	73.148			
00:00:20	9.452	73.148			
00:00:20	9.366	73.148			
00:00:20	9.440	73.148			
00:00:20	8.952	73.148			
00:00:20	8.739	73.148			
00:00:20	8.524	73.148			
00:00:20	7.789	73.148			
00:00:20	7.614	73.148			
00:00:20	6.835	73.148			
00:00:20	6.308	73.148			
00:00:20	5.893	73.148			
00:00:20	5.078	73.148			
00:00:20	4.756	73.148			
00:00:20	4.056	71.776			
00:00:20	3.408	71.776			
00:00:20	2.946	71.776			
00:00:20	1.923	71.776			
00:00:20	1.525	71.781			
00:00:20	0.970	71.781			
00:00:20	0.378	71.781			
00:00:20	0.216	71.781			
00:00:20	-0.514	71.781			
00:00:20	-0.924	71.781			
00:00:20	-1.211	71.781			
00:00:20	-1.766	71.781			
00:00:20	-1.852	71.781			
00:00:20	-2.384	71.781			
00:00:20	-2.488	71.781			
00:00:20	-2.446	71.781			
00:00:20	-2.590	71.781			
00:00:20	-2.162	71.781			
00:00:20	-2.222	71.781			
00:00:20	-2.252	71.781			
00:00:20	-1.936	71.781			
00:00:20	-2.167	71.781			
00:00:20	-1.760	71.781			
00:00:20	-1.738	71.781			
00:00:20	-1.735	71.781			
00:00:20	-1.500	71.781			
00:00:20	-1.761	71.781			
00:00:20	-1.672	71.781			
00:00:20	-1.907	71.781			
00:00:20	-2.251	71.781			
00:00:20	-2.146	71.781			
00:00:20	-2.699	71.781			
00:00:20	-2.837	71.781			
00:00:20	-3.076	71.781			
00:00:20	-3.616	71.781			
00:00:20	-3.401	71.781			
00:00:20	-3.600	71.781			
00:00:20	-3.786	71.781			
00:00:20	-3.771	71.781			
00:00:20	-4.053	71.781			
00:00:20	-3.787	71.781			
00:00:20	-3.935	71.781			
00:00:20	-4.134	71.781			
00:00:20	-4.109	71.781			
00:00:20	-4.343	71.781			
00:00:20	-4.232	71.781			
00:00:20	-4.273	71.781			
00:00:20	-4.329	71.781			
00:00:20	-3.991	71.781			
00:00:20	-4.358	71.781			
00:00:20	-4.180	71.781			
00:00:20	-4.327	71.781			
00:00:20	-4.671	71.781			
00:00:20	-4.466	71.781			
00:00:20	-4.751	71.781			
00:00:20	-4.673	71.781			
00:00:20	-4.376	71.781			
00:00:20	-4.478	71.781			
00:00:20	-4.053	71.781			
00:00:20	-4.179	71.781			
00:00:20	-4.204	71.781			
00:00:20	-4.038	71.781			
00:00:20	-4.344	71.781			
00:00:20	-4.026	71.781			
00:00:20	-4.119	71.781			
00:00:20	-4.162	71.781			
00:00:20	-3.808	71.781			
00:00:20	-4.088	71.781			
00:00:20	-3.975	71.781			
00:00:20	-4.120	71.781			
00:00:20	-4.258	71.781			
00:00:20	-3.900	71.781			
00:00:20	-4.105	71.781			
00:00:20	-4.280	71.781			
00:00:20	-4.420	71.781			
00:00:20	-4.749	71.781			
00:00:20	-4.335	71.781			
00:00:20	-4.351	71.781			
00:00:20	-4.220	71.781			
00:00:20	-4.055	71.781			
00:00:20	-4.461	71.781			
00:00:20	-4.212	71.781			
00:00:20	-4.241	71.781			
00:00:20	-4.025	71.781			
00:00:20	-3.284	71.781			
00:00:20	-2.723	71.781			
00:00:20	-1.318	71.781			
00:00:20	-0.081	71.781			
00:00:21	1.101	71.781			
00:00:21	2.541	71.781			
00:00:21	3.621	71.781			
00:00:21	4.930	71.781			
00:00:21	5.935	71.781			
00:00:21	6.419	71.781			
00:00:21	7.129	71.781			
00:00:21	7.235	71.781			
00:00:21	7.501	71.781			
00:00:21	7.513	71.781			
00:00:21	6.944	71.781			
00:00:21	6.908	71.781			
00:00:21	6.382	71.781			
00:00:21	5.879	71.781			
00:00:21	5.499	71.781			
00:00:21	4.697	71.781			
00:00:21	4.354	71.776			
00:00:21	3.730	71.776			
00:00:21	3.297	71.776			
00:00:21	3.335	71.776			
00:00:21	2.783	71.781			
00:00:21	2.540	71.781			
00:00:21	1.913	71.781			
00:00:21	1.204	71.781			
00:00:21	0.880	71.781			
00:00:21	0.032	71.781			
00:00:21	-0.294	71.781			
00:00:21	-0.704	71.781			
00:00:21	-1.560	71.781			
00:00:21	-1.925	71.781			
00:00:21	-2.447	71.781			
00:00:21	-2.535	71.781			
00:00:21	-2.442	71.781			
00:00:21	-2.701	71.781			
00:00:21	-2.494	71.781			
00:00:21	-2.525	71.781			
00:00:21	-2.598	71.781			
00:00:21	-2.278	71.781			
00:00:21	-2.338	71.781			
00:00:21	-1.817	71.781			
00:00:21	-1.699	71.781			
00:00:21	-1.841	71.781			
00:00:21	-1.512	71.781			
00:00:21	-1.740	71.781			
00:00:21	-1.611	71.781			
00:00:21	-1.709	71.781			
00:00:21	-2.050	71.781			
00:00:21	-1.719	71.781			
00:00:21	-1.980	71.781			
00:00:21	-1.920	71.781			
00:00:21	-1.897	71.781			
00:00:21	-2.099	71.781			
00:00:21	-2.081	71.781			
00:00:21	-2.573	71.781			
00:00:21	-2.724	71.781			
00:00:21	-2.671	71.781			
00:00:21	-3.011	71.781			
00:00:21	-2.881	71.781			
00:00:21	-3.244	71.781			
00:00:21	-3.696	71.781			
00:00:21	-3.572	71.781			
00:00:21	-3.907	71.781			
00:00:21	-3.760	71.781			
00:00:21	-3.841	71.781			
00:00:21	-4.116	71.781			
00:00:21	-3.833	71.781			
00:00:21	-4.192	71.781			
00:00:21	-4.134	71.781			
00:00:21	-4.158	71.781			
00:00:21	-4.392	71.781			
00:00:21	-4.004	71.781			
00:00:21	-4.250	71.781			
00:00:21	-4.132	71.781			
00:00:21	-3.830	71.781			
00:00:21	-3.971	71.781			
00:00:21	-3.617	71.781			
00:00:21	-3.933	71.781			
00:00:21	-4.063	71.781			
00:00:21	-3.909	71.781			
00:00:21	-4.150	71.781			
00:00:21	-3.919	71.781			
00:00:21	-3.834	71.781			
00:00:21	-3.724	71.781			
00:00:21	-3.431	71.781			
00:00:21	-3.611	71.781			
00:00:21	-3.299	71.781			
00:00:21	-3.216	71.781			
00:00:21	-3.537	71.781			
00:00:21	-3.343	71.781			
00:00:21	-3.575	71.781			
00:00:21	-3.578	71.781			
00:00:21	-3.509	71.781			
00:00:21	-3.905	71.781			
00:00:21	-3.690	71.781			
00:00:21	-3.902	71.781			
00:00:21	-3.787	71.781			
00:00:21	-3.601	71.781			
00:00:21	-3.974	71.781			
00:00:21	-3.965	71.781			
00:00:21	-4.268	71.781			
00:00:21	-4.352	71.781			
00:00:21	-4.170	71.781			
00:00:21	-4.435	71.781			
00:00:21	-4.011	71.781			
00:00:21	-3.598	71.781			
00:00:21	-2.954	71.781			
00:00:21	-1.711	71.781			
00:00:21	-0.916	71.781			
00:00:21	0.449	71.781			
00:00:21	1.716	71.781			
00:00:21	2.758	71.781			
00:00:21	4.265	71.781			
00:00:21	4.956	71.781			
00:00:21	5.640	71.781			
00:00:21	6.024	71.781			
00:00:21	5.977	71.781			
00:00:21	6.261	71.781			
00:00:21	6.135	71.781			
00:00:21	5.888	71.781			
00:00:21	5.812	71.781			
00:00:21	4.966	71.781			
00:00:21	4.575	71.781			
00:00:21	3.913	71.781			
00:00:21	3.247	71.781			
00:00:21	3.089	71.111			
00:00:21	2.328	71.111			
00:00:21	2.206	71.111			
00:00:21	1.930	71.111			
00:00:22	1.440	71.116			
00:00:22	1.456	71.116			
00:00:22	0.780	71.116			
00:00:22	0.523	71.116			
00:00:22	0.164	71.116			
00:00:22	-0.412	71.116			
00:00:22	-0.550	71.116			
00:00:22	-1.228	71.116			
00:00:22	-1.733	71.116			
00:00:22	-2.063	71.116			
00:00:22	-2.678	71.116			
00:00:22	-2.786	71.116			
00:00:22	-3.011	71.116			
00:00:22	-3.017	71.116			
00:00:22	-2.850	71.116			
00:00:22	-3.099	71.116			
00:00:22	-2.868	71.116			
00:00:22	-2.761	71.116			
00:00:22	-2.412	71.116			
00:00:22	-1.809	71.116			
00:00:22	-1.923	71.116			
00:00:22	-1.798	71.116			
00:00:22	-1.718	71.116			
00:00:22	-1.856	71.116			
00:00:22	-1.650	71.116			
00:00:22	-1.976	71.116			
00:00:22	-1.843	71.116			
00:00:22	-1.795	71.116			
00:00:22	-2.018	71.116			
00:00:22	-1.633	71.116			
00:00:22	-1.819	71.116			
00:00:22	-2.014	71.116			
00:00:22	-2.089	71.116			
00:00:22	-2.615	71.116			
00:00:22	-2.524	71.116			
00:00:22	-2.662	71.116			
00:00:22	-2.800	71.116			
00:00:22	-2.805	71.116			
00:00:22	-3.226	71.116			
00:00:22	-3.186	71.116			
00:00:22	-3.356	71.116			
00:00:22	-3.524	71.116			
00:00:22	-3.288	71.116			
00:00:22	-3.650	71.116			
00:00:22	-3.614	71.116			
00:00:22	-3.758	71.116			
00:00:22	-4.034	71.116			
00:00:22	-3.867	71.116			
00:00:22	-4.066	71.116			
00:00:22	-3.746	71.116			
00:00:22	-3.604	71.116			
00:00:22	-3.922	71.116			
00:00:22	-3.684	71.116			
00:00:22	-3.943	71.116			
00:00:22	-3.841	71.116			
00:00:22	-3.567	71.116			
00:00:22	-3.766	71.116			
00:00:22	-3.602	71.116			
00:00:22	-3.733	71.116			
00:00:22	-3.823	71.116			
00:00:22	-3.561	71.116			
00:00:22	-3.746	71.116			
00:00:22	-3.621	71.116			
00:00:22	-3.705	71.116			
00:00:22	-3.898	71.116			
00:00:22	-3.826	71.116			
00:00:22	-4.072	71.116			
00:00:22	-3.891	71.116			
00:00:22	-3.825	71.116			
00:00:22	-4.191	71.116			
00:00:22	-3.970	71.116			
00:00:22	-4.177	71.116			
00:00:22	-4.198	71.116			
00:00:22	-3.983	71.116			
00:00:22	-4.292	71.116			
00:00:22	-4.091	71.116			
00:00:22	-4.189	71.116			
00:00:22	-4.442	71.116			
00:00:22	-4.201	71.116			
00:00:22	-4.576	71.116			
00:00:22	-4.402	71.116			
00:00:22	-4.555	71.116			
00:00:22	-4.808	71.116			
00:00:22	-4.572	71.116			
00:00:22	-4.753	71.116			
00:00:22	-4.104	71.116			
00:00:22	-3.537	71.116			
00:00:22	-3.106	71.116			
00:00:22	-1.869	71.116			
00:00:22	-1.000	71.116			
00:00:22	0.366	71.116			
00:00:22	1.949	71.116			
00:00:22	2.789	71.116			
00:00:22	4.158	71.116			
00:00:22	4.775	71.116			
00:00:22	5.360	71.116			
00:00:22	5.897	71.116			
00:00:22	5.762	71.116			
00:00:22	5.954	71.116			
00:00:22	5.605	71.116			
00:00:22	5.045	71.116			
00:00:22	4.780	71.116			
00:00:22	4.209	71.116			
00:00:22	3.994	71.116			
00:00:22	3.504	71.116			
00:00:22	2.825	71.116			
00:00:22	2.588	71.116			
00:00:22	1.827	71.116			
00:00:22	1.477	70.459			
00:00:22	1.255	70.459			
00:00:22	0.735	70.459			
00:00:22	0.822	70.459			
00:00:22	0.271	70.464			
00:00:22	-0.018	70.464			
00:00:22	-0.277	70.464			
00:00:22	-0.955	70.464			
00:00:22	-1.137	70.464			
00:00:22	-1.611	70.464			
00:00:22	-2.058	70.464			
00:00:22	-2.061	70.464			
00:00:22	-2.550	70.464			
00:00:22	-2.482	70.464			
00:00:22	-2.519	70.464			
00:00:22	-2.718	70.464			
00:00:22	-2.551	70.464			
00:00:22	-2.786	70.464			
00:00:22	-2.626	70.464			
00:00:22	-2.538	70.464			
00:00:23	-2.692	70.464			
00:00:23	-2.279	70.464			
00:00:23	-2.294	70.464			
00:00:23	-1.890	70.464			
00:00:23	-1.630	70.464			
00:00:23	-1.888	70.464			
00:00:23	-1.524	70.464			
00:00:23	-1.695	70.464			
00:00:23	-1.970	70.464			
00:00:23	-2.096	70.464			
00:00:23	-2.589	70.464			
00:00:23	-2.467	70.464			
00:00:23	-2.652	70.464			
00:00:23	-2.610	70.464			
00:00:23	-2.355	70.464			
00:00:23	-2.704	70.464			
00:00:23	-2.799	70.464			
00:00:23	-2.909	70.464			
00:00:23	-3.216	70.464			
00:00:23	-3.119	70.464			
00:00:23	-3.484	70.464			
00:00:23	-3.363	70.464			
00:00:23	-3.497	70.464			
00:00:23	-3.881	70.464			
00:00:23	-3.744	70.464			
00:00:23	-3.921	70.464			
00:00:23	-3.971	70.464			
00:00:23	-4.048	70.464			
00:00:23	-4.443	70.464			
00:00:23	-4.129	70.464			
00:00:23	-4.180	70.464			
00:00:23	-4.172	70.464			
00:00:23	-3.861	70.464			
00:00:23	-4.202	70.464			
00:00:23	-3.983	70.464			
00:00:23	-4.057	70.464			
00:00:23	-4.040	70.464			
00:00:23	-3.657	70.464			
00:00:23	-3.906	70.464			
00:00:23	-3.755	70.464			
00:00:23	-3.779	70.464			
00:00:23	-3.902	70.464			
00:00:23	-3.543	70.464			
00:00:23	-3.642	70.464			
00:00:23	-3.562	70.464			
00:00:23	-3.462	70.464			
00:00:23	-3.720	70.464			
00:00:23	-3.596	70.464			
00:00:23	-3.809	70.464			
00:00:23	-3.879	70.464			
00:00:23	-3.918	70.464			
00:00:23	-4.353	70.464			
00:00:23	-4.158	70.464			
00:00:23	-4.317	70.464			
00:00:23	-4.342	70.464			
00:00:23	-4.157	70.464			
00:00:23	-4.445	70.464			
00:00:23	-4.313	70.464			
00:00:23	-4.461	70.464			
00:00:23	-4.709	70.464			
00:00:23	-4.559	70.464			
00:00:23	-4.670	70.464			
00:00:23	-4.383	70.464			
00:00:23	-4.222	70.464			
00:00:23	-4.241	70.464			
00:00:23	-3.707	70.464			
00:00:23	-3.223	70.464			
00:00:23	-2.322	70.464			
00:00:23	-1.078	70.464			
00:00:23	-0.041	70.464			
00:00:23	1.421	70.464			
00:00:23	2.435	70.464			
00:00:23	3.360	70.464			
00:00:23	4.482	70.464			
00:00:23	5.012	70.464			
00:00:23	5.650	70.464			
00:00:23	5.666	70.464			
00:00:23	5.698	70.464			
00:00:23	5.860	70.464			
00:00:23	5.216	70.464			
00:00:23	5.036	70.464			
00:00:23	4.544	70.464			
00:00:23	3.947	70.464			
00:00:23	3.765	70.464			
00:00:23	2.990	70.464			
00:00:23	2.693	70.464			
00:00:23	2.330	70.464			
00:00:23	1.658	70.464			
00:00:23	1.521	71.111			
00:00:23	0.909	71.111			
00:00:23	0.586	71.111			
00:00:23	0.428	71.111			
00:00:23	-0.102	71.116			
00:00:23	-0.155	71.116			
00:00:23	-0.793	71.116			
00:00:23	-1.412	71.116			
00:00:23	-1.644	71.116			
00:00:23	-2.263	71.116			
00:00:23	-2.260	71.116			
00:00:23	-2.535	71.116			
00:00:23	-2.842	71.116			
00:00:23	-2.754	71.116			
00:00:23	-3.235	71.116			
00:00:23	-2.945	71.116			
00:00:23	-2.758	71.116			
00:00:23	-2.807	71.116			
00:00:23	-2.262	71.116			
00:00:23	-2.286	71.116			
00:00:23	-1.948	71.116			
00:00:23	-1.819	71.116			
00:00:23	-2.024	71.116			
00:00:23	-1.627	71.116			
00:00:23	-1.752	71.116			
00:00:23	-1.834	71.116			
00:00:23	-1.726	71.116			
00:00:23	-2.105	71.116			
00:00:23	-2.023	71.116			
00:00:23	-2.290	71.116			
00:00:23	-2.457	71.116			
00:00:23	-2.503	71.116			
00:00:23	-2.906	71.116			
00:00:23	-2.684	71.116			
00:00:23	-2.602	71.116			
00:00:23	-2.859	71.116			
00:00:23	-2.754	71.116			
00:00:23	-3.168	71.116			
00:00:23	-3.223	71.116			
00:00:23	-3.293	71.116			
00:00:24	-3.574	71.116			
00:00:24	-3.308	71.116			
00:00:24	-3.351	71.116			
00:00:24	-3.241	71.116			
00:00:24	-3.088	71.116			
00:00:24	-3.471	71.116			
00:00:24	-3.215	71.116			
00:00:24	-3.558	71.116			
00:00:24	-3.739	71.116			
00:00:24	-3.742	71.116			
00:00:24	-4.141	71.116			
00:00:24	-3.922	71.116			
00:00:24	-3.865	71.116			
00:00:24	-3.744	71.116			
00:00:24	-3.373	71.116			
00:00:24	-3.575	71.116			
00:00:24	-3.440	71.116			
00:00:24	-3.605	71.116			
00:00:24	-3.812	71.116			
00:00:24	-3.592	71.116			
00:00:24	-3.817	71.116			
00:00:24	-3.714	71.116			
00:00:24	-3.595	71.116			
00:00:24	-3.869	71.116			
00:00:24	-3.608	71.116			
00:00:24	-3.792	71.116			
00:00:24	-3.695	71.116			
00:00:24	-3.400	71.116			
00:00:24	-3.564	71.116			
00:00:24	-3.357	71.116			
00:00:24	-3.589	71.116			
00:00:24	-3.746	71.116			
00:00:24	-3.593	71.116			
00:00:24	-4.119	71.116			
00:00:24	-4.082	71.116			
00:00:24	-4.129	71.116			
00:00:24	-4.269	71.116			
00:00:24	-3.993	71.116			
00:00:24	-4.265	71.116			
00:00:24	-4.188	71.116			
00:00:24	-4.286	71.116			
00:00:24	-4.598	71.116			
00:00:24	-4.365	71.116			
00:00:24	-4.461	71.116			
00:00:24	-4.182	71.116			
00:00:24	-3.891	71.116			
00:00:24	-3.956	71.116			
00:00:24	-3.310	71.116			
00:00:24	-2.852	71.116			
00:00:24	-1.932	71.116			
00:00:24	-0.539	71.116			
00:00:24	0.447	71.116			
00:00:24	1.938	71.116			
00:00:24	3.081	71.116			
00:00:24	4.066	71.116			
00:00:24	5.284	71.116			
00:00:24	5.830	71.116			
00:00:24	6.477	71.116			
00:00:24	6.623	71.116			
00:00:24	6.400	71.116			
00:00:24	6.472	71.116			
00:00:24	5.932	71.116			
00:00:24	5.779	71.116			
00:00:24	5.576	71.116			
00:00:24	4.956	71.116			
00:00:24	4.740	71.116			
00:00:24	3.989	71.116			
00:00:24	3.702	71.116			
00:00:24	3.478	69.818			
00:00:24	2.789	69.818			
00:00:24	2.665	69.818			
00:00:24	2.171	69.818			
00:00:24	1.658	69.823			
00:00:24	1.577	69.823			
00:00:24	0.940	69.823			
00:00:24	0.842	69.823			
00:00:24	0.286	69.823			
00:00:24	-0.344	69.823			
00:00:24	-0.555	69.823			
00:00:24	-1.252	69.823			
00:00:24	-1.419	69.823			
00:00:24	-1.620	69.823			
00:00:24	-1.969	69.823			
00:00:24	-1.798	69.823			
00:00:24	-2.118	69.823			
00:00:24	-1.972	69.823			
00:00:24	-1.854	69.823			
00:00:24	-1.951	69.823			
00:00:24	-1.556	69.823			
00:00:24	-1.624	69.823			
00:00:24	-1.357	69.823			
00:00:24	-1.023	69.823			
00:00:24	-1.045	69.823			
00:00:24	-0.673	69.823			
00:00:24	-0.725	69.823			
00:00:24	-0.874	69.823			
00:00:24	-0.720	69.823			
00:00:24	-0.961	69.823			
00:00:24	-0.873	69.823			
00:00:24	-1.040	69.823			
00:00:24	-1.429	69.823			
00:00:24	-1.419	69.823			
00:00:24	-1.728	69.823			
00:00:24	-1.515	69.823			
00:00:24	-1.535	69.823			
00:00:24	-1.924	69.823			
00:00:24	-1.751	69.823			
00:00:24	-2.175	69.823			
00:00:24	-2.336	69.823			
00:00:24	-2.298	69.823			
00:00:24	-2.679	69.823			
00:00:24	-2.385	69.823			
00:00:24	-2.585	69.823			
00:00:24	-2.730	69.823			
00:00:24	-2.547	69.823			
00:00:24	-2.794	69.823			
00:00:24	-2.634	69.823			
00:00:24	-2.805	69.823			
00:00:24	-2.916	69.823			
00:00:24	-2.882	69.823			
00:00:24	-3.229	69.823			
00:00:24	-3.198	69.823			
00:00:24	-3.288	69.823			
00:00:24	-3.360	69.823			
00:00:24	-2.941	69.823			
00:00:24	-3.221	69.823			
00:00:24	-3.219	69.823			
00:00:24	-3.219	69.823			
00:00:25	-3.496	69.823			
00:00:25	-3.241	69.823			
00:00:25	-3.476	69.823			
00:00:25	-3.414	69.823			
00:00:25	-3.083	69.823			
00:00:25	-3.343	69.823			
00:00:25	-3.006	69.823			
00:00:25	-3.078	69.823			
00:00:25	-3.071	69.823			
00:00:25	-2.892	69.823			
00:00:25	-3.195	69.823			
00:00:25	-3.213	69.823			
00:00:25	-3.388	69.823			
00:00:25	-3.486	69.823			
00:00:25	-3.165	69.823			
00:00:25	-3.469	69.823			
00:00:25	-3.462	69.823			
00:00:25	-3.491	69.823			
00:00:25	-3.720	69.823			
00:00:25	-3.603	69.823			
00:00:25	-4.062	69.823			
00:00:25	-4.195	69.823			
00:00:25	-4.230	69.823			
00:00:25	-4.659	69.823			
00:00:25	-4.413	69.823			
00:00:25	-4.416	69.823			
00:00:25	-4.391	69.823			
00:00:25	-4.244	69.823			
00:00:25	-4.317	69.823			
00:00:25	-3.691	69.823			
00:00:25	-3.142	69.823			
00:00:25	-2.271	69.823			
00:00:25	-0.820	69.823			
00:00:25	0.141	69.823			
00:00:25	1.788	69.823			
00:00:25	3.093	69.823			
00:00:25	4.134	69.823			
00:00:25	5.589	69.823			
00:00:25	6.363	69.823			
00:00:25	7.338	69.823			
00:00:25	7.855	69.823			
00:00:25	7.851	69.823			
00:00:25	8.178	69.823			
00:00:25	7.926	69.823			
00:00:25	7.802	69.823			
00:00:25	7.734	69.823			
00:00:25	7.099	69.823			
00:00:25	7.002	69.823			
00:00:25	6.524	69.823			
00:00:25	6.288	69.823			
00:00:25	6.054	69.823			
00:00:25	5.329	69.823			
00:00:25	5.158	69.189			
00:00:25	4.612	69.189			
00:00:25	4.201	69.189			
00:00:25	4.157	69.189			
00:00:25	3.620	69.194			
00:00:25	3.535	69.194			
00:00:25	3.070	69.194			
00:00:25	2.372	69.194			
00:00:25	2.040	69.194			
00:00:25	1.266	69.194			
00:00:25	0.924	69.194			
00:00:25	0.811	69.194			
00:00:25	0.191	69.194			
00:00:25	0.105	69.194			
00:00:25	-0.401	69.194			
00:00:25	-0.540	69.194			
00:00:25	-0.349	69.194			
00:00:25	-0.490	69.194			
00:00:25	-0.201	69.194			
00:00:25	-0.169	69.194			
00:00:25	-0.054	69.194			
00:00:25	0.295	69.194			
00:00:25	-0.072	69.194			
00:00:25	0.243	69.194			
00:00:25	0.172	69.194			
00:00:25	0.057	69.194			
00:00:25	0.419	69.194			
00:00:25	0.078	69.194			
00:00:25	-0.093	69.194			
00:00:25	-0.127	69.194			
00:00:25	-0.328	69.194			
00:00:25	-0.160	69.194			
00:00:25	-0.579	69.194			
00:00:25	-0.732	69.194			
00:00:25	-0.784	69.194			
00:00:25	-1.157	69.194			
00:00:25	-0.992	69.194			
00:00:25	-1.313	69.194			
00:00:25	-1.590	69.194			
00:00:25	-1.619	69.194			
00:00:25	-1.970	69.194			
00:00:25	-1.855	69.194			
00:00:25	-2.221	69.194			
00:00:25	-2.609	69.194			
00:00:25	-2.606	69.194			
00:00:25	-3.001	69.194			
00:00:25	-2.780	69.194			
00:00:25	-2.706	69.194			
00:00:25	-2.911	69.194			
00:00:25	-2.722	69.194			
00:00:25	-2.946	69.194			
00:00:25	-2.700	69.194			
00:00:25	-2.616	69.194			
00:00:25	-2.810	69.194			
00:00:25	-2.578	69.194			
00:00:25	-2.802	69.194			
00:00:25	-2.813	69.194			
00:00:25	-2.572	69.194			
00:00:25	-2.674	69.194			
00:00:25	-2.185	69.194			
00:00:25	-2.288	69.194			
00:00:25	-2.456	69.194			
00:00:25	-2.295	69.194			
00:00:25	-2.454	69.194			
00:00:25	-2.197	69.194			
00:00:25	-2.328	69.194			
00:00:25	-2.600	69.194			
00:00:25	-2.373	69.194			
00:00:25	-2.741	69.194			
00:00:25	-2.642	69.194			
00:00:25	-2.735	69.194			
00:00:25	-2.887	69.194			
00:00:25	-2.650	69.194			
00:00:25	-2.990	69.194			
00:00:25	-2.976	69.194			
00:00:25	-3.050	69.194			
00:00:26	-3.343	69.194			
00:00:26	-3.094	69.194			
00:00:26	-3.436	69.194			
00:00:26	-3.559	69.194			
00:00:26	-3.558	69.194			
00:00:26	-3.846	69.194			
00:00:26	-3.688	69.194			
00:00:26	-3.843	69.194			
00:00:26	-3.985	69.194			
00:00:26	-3.671	69.194			
00:00:26	-3.846	69.194			
00:00:26	-3.555	69.194			
00:00:26	-3.285	69.194			
00:00:26	-2.792	69.194			
00:00:26	-1.683	69.194			
00:00:26	-1.084	69.194			
00:00:26	0.174	69.194			
00:00:26	1.493	69.194			
00:00:26	2.764	69.194			
00:00:26	4.639	69.194			
00:00:26	5.738	69.194			
00:00:26	6.856	69.194			
00:00:26	8.004	69.194			
00:00:26	8.401	69.194			
00:00:26	9.121	69.194			
00:00:26	9.408	69.194			
00:00:26	9.458	69.194			
00:00:26	9.493	69.194			
00:00:26	8.960	69.194			
00:00:26	8.868	69.194			
00:00:26	8.519	69.194			
00:00:26	8.046	69.194			
00:00:26	8.001	69.194			
00:00:26	7.419	69.194			
00:00:26	7.335	69.194			
00:00:26	6.950	69.194			
00:00:26	6.201	67.965			
00:00:26	5.981	67.965			
00:00:26	5.261	67.965			
00:00:26	4.897	67.965			
00:00:26	4.589	67.970			
00:00:26	4.000	67.970			
00:00:26	3.700	67.970			
00:00:26	3.069	67.970			
00:00:26	2.629	67.970			
00:00:26	2.237	67.970			
00:00:26	1.516	67.970			
00:00:26	1.273	67.970			
00:00:26	0.712	67.970			
00:00:26	0.302	67.970			
00:00:26	0.188	67.970			
00:00:26	-0.163	67.970			
00:00:26	0.205	67.970			
00:00:26	0.157	67.970			
00:00:26	0.306	67.970			
00:00:26	0.810	67.970			
00:00:26	0.663	67.970			
00:00:26	0.916	67.970			
00:00:26	0.924	67.970			
00:00:26	0.663	67.970			
00:00:26	0.891	67.970			
00:00:26	0.574	67.970			
00:00:26	0.563	67.970			
00:00:26	0.509	67.970			
00:00:26	0.131	67.970			
00:00:26	0.217	67.970			
00:00:26	-0.077	67.970			
00:00:26	-0.188	67.970			
00:00:26	-0.080	67.970			
00:00:26	-0.627	67.970			
00:00:26	-0.562	67.970			
00:00:26	-0.975	67.970			
00:00:26	-1.190	67.970			
00:00:26	-1.042	67.970			
00:00:26	-1.472	67.970			
00:00:26	-1.474	67.970			
00:00:26	-1.608	67.970			
00:00:26	-1.942	67.970			
00:00:26	-1.778	67.970			
00:00:26	-2.220	67.970			
00:00:26	-2.244	67.970			
00:00:26	-2.473	67.970			
00:00:26	-3.009	67.970			
00:00:26	-2.909	67.970			
00:00:26	-3.081	67.970			
00:00:26	-2.959	67.970			
00:00:26	-2.755	67.970			
00:00:26	-3.110	67.970			
00:00:26	-2.948	67.970			
00:00:26	-3.248	67.970			
00:00:26	-3.385	67.970			
00:00:26	-3.246	67.970			
00:00:26	-3.446	67.970			
00:00:26	-3.108	67.970			
00:00:26	-3.117	67.970			
00:00:26	-3.256	67.970			
00:00:26	-2.906	67.970			
00:00:26	-3.101	67.970			
00:00:26	-2.890	67.970			
00:00:26	-2.858	67.970			
00:00:26	-3.011	67.970			
00:00:26	-2.886	67.970			
00:00:26	-3.179	67.970			
00:00:26	-2.975	67.970			
00:00:26	-2.793	67.970			
00:00:26	-3.080	67.970			
00:00:26	-2.863	67.970			
00:00:26	-3.134	67.970			
00:00:26	-3.161	67.970			
00:00:26	-3.061	67.970			
00:00:26	-3.451	67.970			
00:00:26	-3.353	67.970			
00:00:26	-3.592	67.970			
00:00:26	-3.824	67.970			
00:00:26	-3.634	67.970			
00:00:26	-3.919	67.970			
00:00:26	-3.692	67.970			
00:00:26	-3.691	67.970			
00:00:26	-3.712	67.970			
00:00:26	-3.386	67.970			
00:00:26	-3.803	67.970			
00:00:26	-3.661	67.970			
00:00:26	-3.559	67.970			
00:00:26	-3.566	67.970			
00:00:26	-2.997	67.970			
00:00:26	-2.777	67.970			
00:00:26	-1.916	67.970			
00:00:26	-0.723	67.970			
00:00:27	0.422	67.970			
00:00:27	2.192	67.970			
00:00:27	3.449	67.970			
00:00:27	4.712	67.970			
00:00:27	6.153	67.970			
00:00:27	7.203	67.970			
00:00:27	8.531	67.970			
00:00:27	9.119	67.970			
00:00:27	9.586	67.970			
00:00:27	10.112	67.970			
00:00:27	10.032	67.970			
00:00:27	10.240	67.970			
00:00:27	10.035	67.970			
00:00:27	9.736	67.970			
00:00:27	9.659	67.970			
00:00:27	9.083	67.970			
00:00:27	8.866	67.970			
00:00:27	8.529	67.970			
00:00:27	7.870	67.970			
00:00:27	7.577	67.970			
00:00:27	6.796	68.571			
00:00:27	6.292	68.571			
00:00:27	6.023	68.571			
00:00:27	5.269	68.571			
00:00:27	5.161	68.576			
00:00:27	4.542	68.576			
00:00:27	3.887	68.576			
00:00:27	3.370	68.576			
00:00:27	2.292	68.576			
00:00:27	1.925	68.576			
00:00:27	1.185	68.576			
00:00:27	0.510	68.576			
00:00:27	0.216	68.576			
00:00:27	-0.402	68.576			
00:00:27	-0.394	68.576			
00:00:27	-0.409	68.576			
00:00:27	-0.695	68.576			
00:00:27	-0.539	68.576			
00:00:27	-0.648	68.576			
00:00:27	-0.342	68.576			
00:00:27	-0.110	68.576			
00:00:27	-0.177	68.576			
00:00:27	0.260	68.576			
00:00:27	-0.072	68.576			
00:00:27	-0.090	68.576			
00:00:27	0.028	68.576			
00:00:27	-0.378	68.576			
00:00:27	-0.239	68.576			
00:00:27	-0.497	68.576			
00:00:27	-0.696	68.576			
00:00:27	-0.568	68.576			
00:00:27	-1.061	68.576			
00:00:27	-1.080	68.576			
00:00:27	-1.333	68.576			
00:00:27	-1.511	68.576			
00:00:27	-1.244	68.576			
00:00:27	-1.545	68.576			
00:00:27	-1.566	68.576			
00:00:27	-1.785	68.576			
00:00:27	-2.050	68.576			
00:00:27	-1.894	68.576			
00:00:27	-2.322	68.576			
00:00:27	-2.449	68.576			
00:00:27	-2.554	68.576			
00:00:27	-2.911	68.576			
00:00:27	-2.784	68.576			
00:00:27	-3.012	68.576			
00:00:27	-3.043	68.576			
00:00:27	-2.818	68.576			
00:00:27	-2.982	68.576			
00:00:27	-2.647	68.576			
00:00:27	-2.658	68.576			
00:00:27	-2.822	68.576			
00:00:27	-2.524	68.576			
00:00:27	-2.847	68.576			
00:00:27	-2.757	68.576			
00:00:27	-2.945	68.576			
00:00:27	-3.173	68.576			
00:00:27	-3.055	68.576			
00:00:27	-3.301	68.576			
00:00:27	-2.874	68.576			
00:00:27	-2.655	68.576			
00:00:27	-2.767	68.576			
00:00:27	-2.519	68.576			
00:00:27	-2.830	68.576			
00:00:27	-2.971	68.576			
00:00:27	-2.930	68.576			
00:00:27	-3.216	68.576			
00:00:27	-2.902	68.576			
00:00:27	-2.948	68.576			
00:00:27	-3.001	68.576			
00:00:27	-2.766	68.576			
00:00:27	-3.081	68.576			
00:00:27	-2.988	68.576			
00:00:27	-3.224	68.576			
00:00:27	-3.255	68.576			
00:00:27	-3.050	68.576			
00:00:27	-3.430	68.576			
00:00:27	-3.281	68.576			
00:00:27	-3.447	68.576			
00:00:27	-3.651	68.576			
00:00:27	-3.599	68.576			
00:00:27	-3.901	68.576			
00:00:27	-3.775	68.576			
00:00:27	-3.732	68.576			
00:00:27	-3.982	68.576			
00:00:27	-3.586	68.576			
00:00:27	-3.284	68.576			
00:00:27	-2.556	68.576			
00:00:27	-1.322	68.576			
00:00:27	-0.357	68.576			
00:00:27	1.407	68.576			
00:00:27	2.820	68.576			
00:00:27	4.285	68.576			
00:00:27	6.022	68.576			
00:00:27	7.044	68.576			
00:00:27	8.234	68.576			
00:00:27	9.155	68.576			
00:00:27	9.580	68.576			
00:00:27	10.195	68.576			
00:00:27	10.099	68.576			
00:00:27	10.282	68.576			
00:00:27	10.256	68.576			
00:00:27	9.730	68.576			
00:00:27	9.587	68.576			
00:00:27	9.001	68.576			
00:00:27	8.806	68.576			
00:00:27	8.484	68.576			
00:00:28	7.742	68.576			
00:00:28	7.611	68.576			
00:00:28	6.879	68.576			
00:00:28	6.351	68.576			
00:00:28	5.893	69.818			
00:00:28	5.052	69.818			
00:00:28	4.682	69.818			
00:00:28	4.078	69.818			
00:00:28	3.284	69.823			
00:00:28	2.753	69.823			
00:00:28	1.863	69.823			
00:00:28	1.396	69.823			
00:00:28	0.984	69.823			
00:00:28	0.203	69.823			
00:00:28	-0.109	69.823			
00:00:28	-0.709	69.823			
00:00:28	-0.759	69.823			
00:00:28	-0.728	69.823			
00:00:28	-0.902	69.823			
00:00:28	-0.502	69.823			
00:00:28	-0.739	69.823			
00:00:28	-0.601	69.823			
00:00:28	-0.359	69.823			
00:00:28	-0.476	69.823			
00:00:28	-0.071	69.823			
00:00:28	-0.114	69.823			
00:00:28	-0.237	69.823			
00:00:28	-0.090	69.823			
00:00:28	-0.446	69.823			
00:00:28	-0.257	69.823			
00:00:28	-0.432	69.823			
00:00:28	-0.633	69.823			
00:00:28	-0.638	69.823			
00:00:28	-1.196	69.823			
00:00:28	-1.261	69.823			
00:00:28	-1.445	69.823			
00:00:28	-1.841	69.823			
00:00:28	-1.696	69.823			
00:00:28	-2.168	69.823			
00:00:28	-2.282	69.823			
00:00:28	-2.331	69.823			
00:00:28	-2.791	69.823			
00:00:28	-2.730	69.823			
00:00:28	-3.282	69.823			
00:00:28	-3.587	69.823			
00:00:28	-3.670	69.823			
00:00:28	-4.176	69.823			
00:00:28	-3.983	69.823			
00:00:28	-4.217	69.823			
00:00:28	-4.072	69.823			
00:00:28	-3.671	69.823			
00:00:28	-3.843	69.823			
00:00:28	-3.522	69.823			
00:00:28	-3.492	69.823			
00:00:28	-3.538	69.823			
00:00:28	-3.287	69.823			
00:00:28	-3.514	69.823			
00:00:28	-3.554	69.823			
00:00:28	-3.560	69.823			
00:00:28	-3.675	69.823			
00:00:28	-3.267	69.823			
00:00:28	-3.417	69.823			
00:00:28	-3.390	69.823			
00:00:28	-3.278	69.823			
00:00:28	-3.587	69.823			
00:00:28	-3.261	69.823			
00:00:28	-3.261	69.823			
00:00:28	-3.330	69.823			
00:00:28	-3.133	69.823			
00:00:28	-3.468	69.823			
00:00:28	-3.142	69.823			
00:00:28	-3.093	69.823			
00:00:28	-3.106	69.823			
00:00:28	-2.833	69.823			
00:00:28	-3.151	69.823			
00:00:28	-3.102	69.823			
00:00:28	-3.266	69.823			
00:00:28	-3.528	69.823			
00:00:28	-3.154	69.823			
00:00:28	-3.384	69.823			
00:00:28	-3.291	69.823			
00:00:28	-3.436	69.823			
00:00:28	-3.836	69.823			
00:00:28	-3.613	69.823			
00:00:28	-3.833	69.823			
00:00:28	-3.807	69.823			
00:00:28	-3.638	69.823			
00:00:28	-3.840	69.823			
00:00:28	-3.323	69.823			
00:00:28	-3.012	69.823			
00:00:28	-2.379	69.823			
00:00:28	-1.178	69.823			
00:00:28	-0.168	69.823			
00:00:28	1.465	69.823			
00:00:28	3.079	69.823			
00:00:28	4.471	69.823			
00:00:28	6.207	69.823			
00:00:28	7.320	69.823			
00:00:28	8.847	69.823			
00:00:28	9.965	69.823			
00:00:28	10.506	69.823			
00:00:28	11.248	69.823			
00:00:28	11.323	69.823			
00:00:28	11.542	69.823			
00:00:28	11.553	69.823			
00:00:28	11.014	69.823			
00:00:28	10.938	69.823			
00:00:28	10.356	69.823			
00:00:28	9.910	69.823			
00:00:28	9.779	69.823			
00:00:28	9.109	69.823			
00:00:28	8.808	69.823			
00:00:28	7.937	69.818			
00:00:28	7.081	69.818			
00:00:28	6.608	69.818			
00:00:28	5.875	69.818			
00:00:28	5.471	69.823			
00:00:28	4.678	69.823			
00:00:28	3.793	69.823			
00:00:28	3.364	69.823			
00:00:28	2.424	69.823			
00:00:28	1.711	69.823			
00:00:28	0.857	69.823			
00:00:28	-0.128	69.823			
00:00:28	-0.329	69.823			
00:00:28	-0.866	69.823			
00:00:28	-1.155	69.823			
00:00:28	-1.168	69.823			
00:00:29	-1.449	69.823			
00:00:29	-1.164	69.823			
00:00:29	-1.363	69.823			
00:00:29	-1.202	69.823			
00:00:29	-0.875	69.823			
00:00:29	-0.801	69.823			
00:00:29	-0.310	69.823			
00:00:29	-0.259	69.823			
00:00:29	-0.306	69.823			
00:00:29	-0.130	69.823			
00:00:29	-0.576	69.823			
00:00:29	-0.464	69.823			
00:00:29	-0.481	69.823			
00:00:29	-0.721	69.823			
00:00:29	-0.515	69.823			
00:00:29	-0.879	69.823			
00:00:29	-0.972	69.823			
00:00:29	-1.133	69.823			
00:00:29	-1.528	69.823			
00:00:29	-1.340	69.823			
00:00:29	-1.688	69.823			
00:00:29	-1.807	69.823			
00:00:29	-1.926	69.823			
00:00:29	-2.373	69.823			
00:00:29	-2.264	69.823			
00:00:29	-2.494	69.823			
00:00:29	-2.688	69.823			
00:00:29	-2.639	69.823			
00:00:29	-3.150	69.823			
00:00:29	-3.294	69.823			
00:00:29	-3.423	69.823			
00:00:29	-3.552	69.823			
00:00:29	-3.232	69.823			
00:00:29	-3.415	69.823			
00:00:29	-3.255	69.823			
00:00:29	-3.335	69.823			
00:00:29	-3.553	69.823			
00:00:29	-3.273	69.823			
00:00:29	-3.649	69.823			
00:00:29	-3.740	69.823			
00:00:29	-3.860	69.823			
00:00:29	-4.173	69.823			
00:00:29	-3.873	69.823			
00:00:29	-4.192	69.823			
00:00:29	-4.087	69.823			
00:00:29	-3.722	69.823			
00:00:29	-3.862	69.823			
00:00:29	-3.371	69.823			
00:00:29	-3.266	69.823			
00:00:29	-3.127	69.823			
00:00:29	-2.735	69.823			
00:00:29	-2.920	69.823			
00:00:29	-2.524	69.823			
00:00:29	-2.634	69.823			
00:00:29	-2.844	69.823			
00:00:29	-2.686	69.823			
00:00:29	-2.969	69.823			
00:00:29	-3.088	69.823			
00:00:29	-3.285	69.823			
00:00:29	-3.742	69.823			
00:00:29	-3.570	69.823			
00:00:29	-3.899	69.823			
00:00:29	-3.917	69.823			
00:00:29	-3.865	69.823			
00:00:29	-4.225	69.823			
00:00:29	-4.060	69.823			
00:00:29	-4.223	69.823			
00:00:29	-4.105	69.823			
00:00:29	-3.550	69.823			
00:00:29	-3.438	69.823			
00:00:29	-2.755	69.823			
00:00:29	-2.141	69.823			
00:00:29	-1.123	69.823			
00:00:29	0.545	69.823			
00:00:29	1.910	69.823			
00:00:29	3.864	69.823			
00:00:29	5.578	69.823			
00:00:29	6.830	69.823			
00:00:29	8.535	69.823			
00:00:29	9.408	69.823			
00:00:29	10.459	69.823			
00:00:29	11.164	69.823			
00:00:29	11.565	69.823			
00:00:29	12.247	69.823			
00:00:29	12.134	69.823			
00:00:29	12.055	69.823			
00:00:29	11.896	69.823			
00:00:29	11.223	69.823			
00:00:29	11.214	69.823			
00:00:29	10.445	69.823			
00:00:29	9.605	69.823			
00:00:29	9.068	69.823			
00:00:29	8.219	69.823			
00:00:29	7.788	69.823			
00:00:29	7.164	69.823			
00:00:29	6.476	69.823			
00:00:29	6.087	69.818			
00:00:29	5.136	69.818			
00:00:29	4.660	69.818			
00:00:29	3.898	69.818			
00:00:29	2.911	69.823			
00:00:29	2.290	69.823			
00:00:29	1.241	69.823			
00:00:29	0.714	69.823			
00:00:29	0.134	69.823			
00:00:29	-0.737	69.823			
00:00:29	-0.922	69.823			
00:00:29	-1.472	69.823			
00:00:29	-1.627	69.823			
00:00:29	-1.542	69.823			
00:00:29	-1.829	69.823			
00:00:29	-1.579	69.823			
00:00:29	-1.677	69.823			
00:00:29	-1.631	69.823			
00:00:29	-1.284	69.823			
00:00:29	-1.262	69.823			
00:00:29	-0.864	69.823			
00:00:29	-0.839	69.823			
00:00:29	-0.897	69.823			
00:00:29	-0.677	69.823			
00:00:29	-0.998	69.823			
00:00:29	-0.963	69.823			
00:00:29	-0.961	69.823			
00:00:29	-1.256	69.823			
00:00:29	-1.107	69.823			
00:00:29	-1.335	69.823			
00:00:29	-1.476	69.823			
00:00:29	-1.600	69.823			
00:00:30	-1.961	69.823			
00:00:30	-1.903	69.823			
00:00:30	-2.332	69.823			
00:00:30	-2.650	69.823			
00:00:30	-2.703	69.823			
00:00:30	-3.193	69.823			
00:00:30	-3.097	69.823			
00:00:30	-3.414	69.823			
00:00:30	-3.646	69.823			
00:00:30	-3.573	69.823			
00:00:30	-3.898	69.823			
00:00:30	-3.699	69.823			
00:00:30	-3.811	69.823			
00:00:30	-3.981	69.823			
00:00:30	-3.701	69.823			
00:00:30	-3.838	69.823			
00:00:30	-3.822	69.823			
00:00:30	-3.722	69.823			
00:00:30	-3.818	69.823			
00:00:30	-3.435	69.823			
00:00:30	-3.583	69.823			
00:00:30	-3.400	69.823			
00:00:30	-3.256	69.823			
00:00:30	-3.548	69.823			
00:00:30	-3.234	69.823			
00:00:30	-3.348	69.823			
00:00:30	-3.236	69.823			
00:00:30	-3.046	69.823			
00:00:30	-3.319	69.823			
00:00:30	-3.036	69.823			
00:00:30	-3.024	69.823			
00:00:30	-3.098	69.823			
00:00:30	-2.804	69.823			
00:00:30	-3.038	69.823			
00:00:30	-2.975	69.823			
00:00:30	-3.064	69.823			
00:00:30	-3.349	69.823			
00:00:30	-3.139	69.823			
00:00:30	-3.535	69.823			
00:00:30	-3.507	69.823			
00:00:30	-3.492	69.823			
00:00:30	-3.790	69.823			
00:00:30	-3.454	69.823			
00:00:30	-3.828	69.823			
00:00:30	-4.000	69.823			
00:00:30	-3.962	69.823			
00:00:30	-4.261	69.823			
00:00:30	-3.681	69.823			
00:00:30	-3.319	69.823			
00:00:30	-2.553	69.823			
00:00:30	-1.403	69.823			
00:00:30	-0.430	69.823			
00:00:30	1.306	69.823			
00:00:30	2.913	69.823			
00:00:30	4.513	69.823			
00:00:30	6.409	69.823			
00:00:30	7.686	69.823			
00:00:30	9.007	69.823			
00:00:30	10.102	69.823			
00:00:30	10.772	69.823			
00:00:30	11.678	69.823			
00:00:30	11.800	69.823			
00:00:30	11.890	69.823			
00:00:30	11.821	69.823			
00:00:30	11.325	69.823			
00:00:30	11.203	69.823			
00:00:30	10.527	69.823			
00:00:30	10.126	69.823			
00:00:30	9.819	69.823			
00:00:30	8.861	69.823			
00:00:30	8.476	69.823			
00:00:30	7.824	69.823			
00:00:30	7.132	73.143			
00:00:30	6.670	73.143			
00:00:30	5.621	73.143			
00:00:30	5.125	73.143			
00:00:30	4.570	73.148			
00:00:30	3.662	73.148			
00:00:30	3.190	73.148			
00:00:30	2.103	73.148			
00:00:30	1.524	73.148			
00:00:30	0.875	73.148			
00:00:30	-0.061	73.148			
00:00:30	-0.376	73.148			
00:00:30	-0.989	73.148			
00:00:30	-1.271	73.148			
00:00:30	-1.419	73.148			
00:00:30	-1.942	73.148			
00:00:30	-1.678	73.148			
00:00:30	-1.787	73.148			
00:00:30	-1.940	73.148			
00:00:30	-1.679	73.148			
00:00:30	-1.844	73.148			
00:00:30	-1.568	73.148			
00:00:30	-1.518	73.148			
00:00:30	-1.451	73.148			
00:00:30	-1.127	73.148			
00:00:30	-1.341	73.148			
00:00:30	-1.096	73.148			
00:00:30	-1.147	73.148			
00:00:30	-1.491	73.148			
00:00:30	-1.364	73.148			
00:00:30	-1.862	73.148			
00:00:30	-1.885	73.148			
00:00:30	-1.999	73.148			
00:00:30	-2.565	73.148			
00:00:30	-2.516	73.148			
00:00:30	-2.901	73.148			
00:00:30	-3.039	73.148			
00:00:30	-2.860	73.148			
00:00:30	-3.122	73.148			
00:00:30	-2.937	73.148			
00:00:30	-3.166	73.148			
00:00:30	-3.376	73.148			
00:00:30	-3.332	73.148			
00:00:30	-3.858	73.148			
00:00:30	-3.748	73.148			
00:00:30	-3.822	73.148			
00:00:30	-4.104	73.148			
00:00:30	-3.946	73.148			
00:00:30	-4.167	73.148			
00:00:30	-3.925	73.148			
00:00:30	-3.761	73.148			
00:00:30	-3.863	73.148			
00:00:30	-3.584	73.148			
00:00:30	-3.830	73.148			
00:00:30	-3.909	73.148			
00:00:30	-3.770	73.148			
00:00:31	-3.861	73.148			
00:00:31	-3.309	73.148			
00:00:31	-3.353	73.148			
00:00:31	-3.263	73.148			
00:00:31	-3.011	73.148			
00:00:31	-3.091	73.148			
00:00:31	-2.692	73.148			
00:00:31	-2.679	73.148			
00:00:31	-2.698	73.148			
00:00:31	-2.401	73.148			
00:00:31	-2.805	73.148			
00:00:31	-2.680	73.148			
00:00:31	-2.686	73.148			
00:00:31	-3.050	73.148			
00:00:31	-3.082	73.148			
00:00:31	-3.465	73.148			
00:00:31	-3.453	73.148			
00:00:31	-3.418	73.148			
00:00:31	-3.509	73.148			
00:00:31	-3.142	73.148			
00:00:31	-3.334	73.148			
00:00:31	-3.201	73.148			
00:00:31	-2.851	73.148			
00:00:31	-2.568	73.148			
00:00:31	-1.534	73.148			
00:00:31	-0.527	73.148			
00:00:31	0.843	73.148			
00:00:31	2.492	73.148			
00:00:31	3.717	73.148			
00:00:31	5.509	73.148			
00:00:31	7.082	73.148			
00:00:31	8.388	73.148			
00:00:31	9.876	73.148			
00:00:31	10.584	73.148			
00:00:31	11.386	73.148			
00:00:31	11.847	73.148			
00:00:31	11.781	73.148			
00:00:31	11.995	73.148			
00:00:31	11.285	73.148			
00:00:31	10.870	73.148			
00:00:31	10.361	73.148			
00:00:31	9.415	73.148			
00:00:31	9.211	73.148			
00:00:31	8.457	73.148			
00:00:31	7.856	75.294			
00:00:31	7.228	75.294			
00:00:31	6.170	75.294			
00:00:31	5.733	75.294			
00:00:31	4.928	75.299			
00:00:31	4.321	75.299			
00:00:31	3.896	75.299			
00:00:31	2.948	75.299			
00:00:31	2.367	75.299			
00:00:31	1.482	75.299			
00:00:31	0.613	75.299			
00:00:31	-0.047	75.299			
00:00:31	-1.135	75.299			
00:00:31	-1.702	75.299			
00:00:31	-1.936	75.299			
00:00:31	-2.238	75.299			
00:00:31	-2.039	75.299			
00:00:31	-2.312	75.299			
00:00:31	-2.246	75.299			
00:00:31	-2.131	75.299			
00:00:31	-2.208	75.299			
00:00:31	-1.778	75.299			
00:00:31	-1.765	75.299			
00:00:31	-1.443	75.299			
00:00:31	-1.119	75.299			
00:00:31	-1.384	75.299			
00:00:31	-0.932	75.299			
00:00:31	-0.866	75.299			
00:00:31	-0.665	75.299			
00:00:31	-0.263	75.299			
00:00:31	-0.574	75.299			
00:00:31	-0.585	75.299			
00:00:31	-0.925	75.299			
00:00:31	-1.330	75.299			
00:00:31	-1.259	75.299			
00:00:31	-1.740	75.299			
00:00:31	-1.815	75.299			
00:00:31	-2.074	75.299			
00:00:31	-2.572	75.299			
00:00:31	-2.596	75.299			
00:00:31	-3.074	75.299			
00:00:31	-3.261	75.299			
00:00:31	-3.296	75.299			
00:00:31	-3.877	75.299			
00:00:31	-3.809	75.299			
00:00:31	-4.065	75.299			
00:00:31	-4.041	75.299			
00:00:31	-3.807	75.299			
00:00:31	-4.132	75.299			
00:00:31	-3.960	75.299			
00:00:31	-4.066	75.299			
00:00:31	-4.188	75.299			
00:00:31	-3.894	75.299			
00:00:31	-4.038	75.299			
00:00:31	-3.700	75.299			
00:00:31	-3.634	75.299			
00:00:31	-3.817	75.299			
00:00:31	-3.528	75.299			
00:00:31	-3.760	75.299			
00:00:31	-3.543	75.299			
00:00:31	-3.278	75.299			
00:00:31	-3.375	75.299			
00:00:31	-3.075	75.299			
00:00:31	-3.357	75.299			
00:00:31	-3.386	75.299			
00:00:31	-3.165	75.299			
00:00:31	-3.504	75.299			
00:00:31	-3.336	75.299			
00:00:31	-3.519	75.299			
00:00:31	-3.569	75.299			
00:00:31	-3.289	75.299			
00:00:31	-3.534	75.299			
00:00:31	-3.088	75.299			
00:00:31	-2.990	75.299			
00:00:31	-3.370	75.299			
00:00:31	-3.205	75.299			
00:00:31	-3.191	75.299			
00:00:31	-2.725	75.299			
00:00:31	-2.055	75.299			
00:00:31	-1.324	75.299			
00:00:31	0.085	75.299			
00:00:31	1.206	75.299			
00:00:31	2.909	75.299			
00:00:31	4.660	75.299			
00:00:32	6.150	71.781			
00:00:32	7.921	71.781			
00:00:32	8.993	71.781			
00:00:32	10.050	71.781			
00:00:32	11.071	71.781			
00:00:32	11.299	71.781			
00:00:32	11.810	71.781			
00:00:32	11.833	71.781			
00:00:32	11.568	71.781			
00:00:32	11.490	71.781			
00:00:32	10.819	71.781			
00:00:32	10.417	71.781			
00:00:32	9.741	71.781			
00:00:32	8.828	71.781			
00:00:32	8.368	71.781			
00:00:32	7.375	71.781			
00:00:32	6.904	142.557			
00:00:32	6.158	142.557			
00:00:32	5.184	142.557			
00:00:32	4.839	142.557			
00:00:32	3.921	142.557			
00:00:32	3.188	142.557			
00:00:32	2.571	142.557			
00:00:32	1.702	142.557			
00:00:32	1.170	142.557			
00:00:32	0.286	142.557			
00:00:32	-0.576	142.557			
00:00:32	-0.987	142.557			
00:00:32	-1.790	142.557			
00:00:32	-2.021	142.557			
00:00:32	-2.446	142.557			
00:00:32	-2.737	142.557			
00:00:32	-2.583	142.557			
00:00:32	-3.025	142.557			
00:00:32	-2.800	142.557			
00:00:32	-2.702	142.557			
00:00:32	-2.754	142.557			
00:00:32	-2.106	142.557			
00:00:32	-2.054	142.557			
00:00:32	-1.645	142.557			
00:00:32	-1.270	142.557			
00:00:32	-1.364	142.557			
00:00:32	-1.055	142.557			
00:00:32	-1.338	142.557			
00:00:32	-1.447	142.557			
00:00:32	-1.374	142.557			
00:00:32	-1.825	142.557			
00:00:32	-1.628	142.557			
00:00:32	-1.866	142.557			
00:00:32	-1.972	142.557			
00:00:32	-2.039	142.557			
00:00:32	-2.746	142.557			
00:00:32	-2.859	142.557			
00:00:32	-3.286	142.557			
00:00:32	-3.635	142.557			
00:00:32	-3.598	142.557			
00:00:32	-4.010	142.557			
00:00:32	-3.985	142.557			
00:00:32	-4.116	142.557			
00:00:32	-4.327	142.557			
00:00:32	-4.169	142.557			
00:00:32	-4.438	142.557			
00:00:32	-4.340	142.557			
00:00:32	-4.335	142.557			
00:00:32	-4.728	142.557			
00:00:32	-4.429	142.557			
00:00:32	-4.410	142.557			
00:00:32	-4.203	142.557			
00:00:32	-3.806	142.557			
00:00:32	-3.959	142.557			
00:00:32	-3.568	142.557			
00:00:32	-3.407	142.557			
00:00:32	-3.326	142.557			
00:00:32	-2.954	142.557			
00:00:32	-3.163	142.557			
00:00:32	-3.026	142.557			
00:00:32	-3.029	142.557			
00:00:32	-3.146	142.557			
00:00:32	-2.823	142.557			
00:00:32	-2.931	142.557			
00:00:32	-2.786	142.557			
00:00:32	-2.817	142.557			
00:00:32	-3.108	142.557			
00:00:32	-2.818	142.557			
00:00:32	-3.108	142.557			
00:00:32	-3.190	142.557			
00:00:32	-3.160	142.557			
00:00:32	-3.403	142.557			
00:00:32	-3.237	142.557			
00:00:32	-3.434	142.557			
00:00:32	-3.410	142.557			
00:00:32	-2.969	142.557			
00:00:32	-2.927	142.557			
00:00:32	-2.396	142.557			
00:00:32	-2.078	142.557			
00:00:32	-1.268	142.557			
00:00:32	0.212	142.557			
00:00:32	1.442	142.557			
00:00:32	3.280	142.557			
00:00:32	4.912	142.557			
00:00:32	6.399	142.557			
00:00:32	7.960	142.557			
00:00:32	8.950	142.557			
00:00:32	10.070	142.557			
00:00:32	11.011	142.557			
00:00:32	11.287	142.557			
00:00:32	11.700	142.557			
00:00:32	11.512	142.557			
00:00:32	11.443	142.557			
00:00:32	11.298	142.557			
00:00:32	10.592	142.557			
00:00:32	10.281	142.557			
00:00:32	9.275	142.557			
00:00:32	8.346	142.557			
00:00:32	7.846	142.557			
00:00:32	6.907	142.557			
00:00:32	6.492	109.679			
00:00:32	5.719	109.679			
00:00:32	4.808	109.679			
00:00:32	4.447	109.679			
00:00:32	3.501	109.679			
00:00:32	2.890	109.679			
00:00:32	1.970	109.679			
00:00:32	0.815	109.679			
00:00:32	0.190	109.679			
00:00:32	-0.921	109.679			
00:00:32	-1.472	109.679			
00:00:32	-1.675	109.679			
00:00:33	-2.191	109.679			
00:00:33	-2.065	109.679			
00:00:33	-2.374	109.679			
00:00:33	-2.563	109.679			
00:00:33	-2.394	109.679			
00:00:33	-2.540	109.679			
00:00:33	-2.001	109.679			
00:00:33	-1.993	109.679			
00:00:33	-1.762	109.679			
00:00:33	-1.322	109.679			
00:00:33	-1.522	109.679			
00:00:33	-1.212	109.679			
00:00:33	-1.230	109.679			
00:00:33	-1.293	109.679			
00:00:33	-0.978	109.679			
00:00:33	-1.127	109.679			
00:00:33	-1.046	109.679			
00:00:33	-1.089	109.679			
00:00:33	-1.496	109.679			
00:00:33	-1.452	109.679			
00:00:33	-1.837	109.679			
00:00:33	-1.985	109.679			
00:00:33	-2.106	109.679			
00:00:33	-2.605	109.679			
00:00:33	-2.516	109.679			
00:00:33	-2.840	109.679			
00:00:33	-3.058	109.679			
00:00:33	-3.118	109.679			
00:00:33	-3.616	109.679			
00:00:33	-3.547	109.679			
00:00:33	-3.831	109.679			
00:00:33	-4.068	109.679			
00:00:33	-3.945	109.679			
00:00:33	-4.400	109.679			
00:00:33	-4.300	109.679			
00:00:33	-4.306	109.679			
00:00:33	-4.469	109.679			
00:00:33	-4.355	109.679			
00:00:33	-4.736	109.679			
00:00:33	-4.738	109.679			
00:00:33	-4.686	109.679			
00:00:33	-4.768	109.679			
00:00:33	-4.244	109.679			
00:00:33	-4.300	109.679			
00:00:33	-4.202	109.679			
00:00:33	-3.830	109.679			
00:00:33	-3.920	109.679			
00:00:33	-3.418	109.679			
00:00:33	-3.213	109.679			
00:00:33	-3.203	109.679			
00:00:33	-3.004	109.679			
00:00:33	-3.354	109.679			
00:00:33	-3.166	109.679			
00:00:33	-3.244	109.679			
00:00:33	-3.340	109.679			
00:00:33	-3.165	109.679			
00:00:33	-3.408	109.679			
00:00:33	-3.243	109.679			
00:00:33	-3.206	109.679			
00:00:33	-3.376	109.679			
00:00:33	-3.189	109.679			
00:00:33	-3.351	109.679			
00:00:33	-3.344	109.679			
00:00:33	-3.228	109.679			
00:00:33	-3.509	109.679			
00:00:33	-3.276	109.679			
00:00:33	-3.148	109.679			
00:00:33	-2.730	109.679			
00:00:33	-1.977	109.679			
00:00:33	-1.362	109.679			
00:00:33	0.119	109.679			
00:00:33	1.389	109.679			
00:00:33	3.058	109.679			
00:00:33	5.093	109.679			
00:00:33	6.533	109.679			
00:00:33	8.248	109.679			
00:00:33	9.423	109.679			
00:00:33	10.420	109.679			
00:00:33	11.630	109.679			
00:00:33	11.866	109.679			
00:00:33	12.263	109.679			
00:00:33	12.304	109.679			
00:00:33	11.966	109.679			
00:00:33	11.975	109.679			
00:00:33	11.144	109.679			
00:00:33	10.617	109.679			
00:00:33	10.044	109.679			
00:00:33	9.023	109.679			
00:00:33	8.467	109.679			
00:00:33	7.372	109.679			
00:00:33	6.604	109.679			
00:00:33	6.056	109.679			
00:00:33	4.817	75.294			
00:00:33	4.333	75.294			
00:00:33	3.491	75.294			
00:00:33	2.545	75.294			
00:00:33	1.942	75.299			
00:00:33	0.846	75.299			
00:00:33	0.305	75.299			
00:00:33	-0.440	75.299			
00:00:33	-1.319	75.299			
00:00:33	-1.626	75.299			
00:00:33	-2.286	75.299			
00:00:33	-2.452	75.299			
00:00:33	-2.603	75.299			
00:00:33	-2.796	75.299			
00:00:33	-2.403	75.299			
00:00:33	-2.512	75.299			
00:00:33	-2.307	75.299			
00:00:33	-1.946	75.299			
00:00:33	-2.025	75.299			
00:00:33	-1.713	75.299			
00:00:33	-1.755	75.299			
00:00:33	-1.563	75.299			
00:00:33	-1.268	75.299			
00:00:33	-1.488	75.299			
00:00:33	-1.259	75.299			
00:00:33	-1.373	75.299			
00:00:33	-1.590	75.299			
00:00:33	-1.492	75.299			
00:00:33	-1.837	75.299			
00:00:33	-1.821	75.299			
00:00:33	-1.948	75.299			
00:00:33	-2.254	75.299			
00:00:33	-2.135	75.299			
00:00:33	-2.529	75.299			
00:00:33	-2.688	75.299			
00:00:33	-2.898	75.299			
00:00:34	-3.375	75.299			
00:00:34	-3.342	75.299			
00:00:34	-3.677	75.299			
00:00:34	-3.667	75.299			
00:00:34	-3.576	75.299			
00:00:34	-4.044	75.299			
00:00:34	-3.773	75.299			
00:00:34	-3.961	75.299			
00:00:34	-4.236	75.299			
00:00:34	-4.132	75.299			
00:00:34	-4.345	75.299			
00:00:34	-4.233	75.299			
00:00:34	-4.471	75.299			
00:00:34	-4.724	75.299			
00:00:34	-4.487	75.299			
00:00:34	-4.537	75.299			
00:00:34	-4.159	75.299			
00:00:34	-3.857	75.299			
00:00:34	-3.902	75.299			
00:00:34	-3.623	75.299			
00:00:34	-3.841	75.299			
00:00:34	-3.809	75.299			
00:00:34	-3.624	75.299			
00:00:34	-3.829	75.299			
00:00:34	-3.414	75.299			
00:00:34	-3.425	75.299			
00:00:34	-3.306	75.299			
00:00:34	-3.035	75.299			
00:00:34	-3.388	75.299			
00:00:34	-3.248	75.299			
00:00:34	-3.440	75.299			
00:00:34	-3.630	75.299			
00:00:34	-3.450	75.299			
00:00:34	-3.814	75.299			
00:00:34	-3.608	75.299			
00:00:34	-3.716	75.299			
00:00:34	-3.930	75.299			
00:00:34	-3.656	75.299			
00:00:34	-3.720	75.299			
00:00:34	-3.542	75.299			
00:00:34	-3.482	75.299			
00:00:34	-3.669	75.299			
00:00:34	-3.214	75.299			
00:00:34	-3.128	75.299			
00:00:34	-2.437	75.299			
00:00:34	-1.421	75.299			
00:00:34	-0.429	75.299			
00:00:34	1.377	75.299			
00:00:34	3.015	75.299			
00:00:34	4.698	75.299			
00:00:34	6.633	75.299			
00:00:34	7.925	75.299			
00:00:34	9.578	75.299			
00:00:34	10.789	75.299			
00:00:34	11.526	75.299			
00:00:34	12.324	75.299			
00:00:34	12.228	75.299			
00:00:34	12.371	75.299			
00:00:34	12.315	75.299			
00:00:34	11.882	75.299			
00:00:34	11.834	75.299			
00:00:34	10.976	75.299			
00:00:34	10.339	75.299			
00:00:34	9.601	75.299			
00:00:34	8.503	75.299			
00:00:34	7.904	75.299			
00:00:34	6.880	75.299			
00:00:34	6.194	75.299			
00:00:34	5.534	73.846			
00:00:34	4.497	73.846			
00:00:34	3.810	73.846			
00:00:34	2.797	73.846			
00:00:34	1.899	73.851			
00:00:34	1.187	73.851			
00:00:34	-0.057	73.851			
00:00:34	-0.705	73.851			
00:00:34	-1.438	73.851			
00:00:34	-2.165	73.851			
00:00:34	-2.325	73.851			
00:00:34	-2.932	73.851			
00:00:34	-2.910	73.851			
00:00:34	-2.900	73.851			
00:00:34	-3.025	73.851			
00:00:34	-2.594	73.851			
00:00:34	-2.574	73.851			
00:00:34	-2.313	73.851			
00:00:34	-2.143	73.851			
00:00:34	-2.296	73.851			
00:00:34	-1.689	73.851			
00:00:34	-1.491	73.851			
00:00:34	-1.351	73.851			
00:00:34	-1.003	73.851			
00:00:34	-1.217	73.851			
00:00:34	-0.989	73.851			
00:00:34	-1.126	73.851			
00:00:34	-1.366	73.851			
00:00:34	-1.309	73.851			
00:00:34	-1.850	73.851			
00:00:34	-1.721	73.851			
00:00:34	-1.957	73.851			
00:00:34	-2.317	73.851			
00:00:34	-2.364	73.851			
00:00:34	-2.814	73.851			
00:00:34	-2.893	73.851			
00:00:34	-3.091	73.851			
00:00:34	-3.637	73.851			
00:00:34	-3.621	73.851			
00:00:34	-3.817	73.851			
00:00:34	-3.804	73.851			
00:00:34	-3.888	73.851			
00:00:34	-4.444	73.851			
00:00:34	-4.466	73.851			
00:00:34	-4.638	73.851			
