RAW Data export file (tab separated)


Client:	,kozawa
Session:	kozawa7
Date:	06-07-2020
Time:	10:45:13
Duration:	120	Seconds.
Output rate:	128	Samples/sec.

hh:mm:ss	128 SPS	32 SPS	
TIME	Sensor-G:BVP	HR (BVP)	Events	Segments	


00:00:00	5.758	70.000			
00:00:00	5.350	70.000			
00:00:00	3.962	70.000			
00:00:00	3.580	70.000			
00:00:00	2.546	70.000			
00:00:00	1.434	70.000			
00:00:00	1.274	70.000			
00:00:00	0.144	70.000			
00:00:00	-0.095	70.000			
00:00:00	-0.442	70.000			
00:00:00	-1.018	70.000			
00:00:00	-0.737	70.000			
00:00:00	-1.320	70.000			
00:00:00	-1.060	70.000			
00:00:00	-0.732	70.000			
00:00:00	-0.832	70.000			
00:00:00	-0.082	70.000			
00:00:00	-0.266	70.000			
00:00:00	-0.076	70.000			
00:00:00	0.380	70.000			
00:00:00	0.156	70.000			
00:00:00	0.785	70.000			
00:00:00	0.722	70.000			
00:00:00	0.758	70.000			
00:00:00	1.049	70.000			
00:00:00	0.167	70.000			
00:00:00	0.322	70.000			
00:00:00	0.049	70.000			
00:00:00	-0.394	70.000			
00:00:00	-0.136	70.000			
00:00:00	-0.746	70.000			
00:00:00	-0.752	70.000			
00:00:00	-0.810	70.000			
00:00:00	-1.360	70.000			
00:00:00	-0.893	70.000			
00:00:00	-1.277	70.000			
00:00:00	-1.279	70.000			
00:00:00	-1.117	70.000			
00:00:00	-1.694	70.000			
00:00:00	-1.345	70.000			
00:00:00	-1.722	70.000			
00:00:00	-1.818	70.000			
00:00:00	-1.592	70.000			
00:00:00	-2.167	70.000			
00:00:00	-1.824	70.000			
00:00:00	-2.084	70.000			
00:00:00	-2.134	70.000			
00:00:00	-1.684	70.000			
00:00:00	-2.193	70.000			
00:00:00	-1.770	70.000			
00:00:00	-1.899	70.000			
00:00:00	-2.176	70.000			
00:00:00	-1.671	70.000			
00:00:00	-2.268	70.000			
00:00:00	-1.934	70.000			
00:00:00	-1.774	70.000			
00:00:00	-2.335	70.000			
00:00:00	-1.827	70.000			
00:00:00	-2.095	70.000			
00:00:00	-1.952	70.000			
00:00:00	-1.670	70.000			
00:00:00	-2.091	70.000			
00:00:00	-1.533	70.000			
00:00:00	-1.830	70.000			
00:00:00	-1.759	70.000			
00:00:00	-1.378	70.000			
00:00:00	-1.878	70.000			
00:00:00	-1.441	70.000			
00:00:00	-1.722	70.000			
00:00:00	-1.967	70.000			
00:00:00	-1.526	70.000			
00:00:00	-2.081	70.000			
00:00:00	-1.779	70.000			
00:00:00	-1.979	70.000			
00:00:00	-2.270	70.000			
00:00:00	-1.537	70.000			
00:00:00	-1.701	70.000			
00:00:00	-1.085	70.000			
00:00:00	-0.303	70.000			
00:00:00	0.146	70.000			
00:00:00	1.917	70.000			
00:00:00	2.963	70.000			
00:00:00	4.651	70.000			
00:00:00	6.693	70.000			
00:00:00	7.933	70.000			
00:00:00	9.839	70.000			
00:00:00	10.702	70.000			
00:00:00	11.534	70.000			
00:00:00	12.725	70.000			
00:00:00	12.596	70.000			
00:00:00	13.322	70.000			
00:00:00	13.149	70.000			
00:00:00	12.656	70.000			
00:00:00	12.663	70.000			
00:00:00	11.443	70.000			
00:00:00	11.082	70.000			
00:00:00	10.371	70.000			
00:00:00	9.445	70.000			
00:00:00	9.335	70.000			
00:00:00	8.175	70.000			
00:00:00	7.645	70.000			
00:00:00	7.140	70.000			
00:00:00	5.906	70.000			
00:00:00	5.660	70.000			
00:00:00	4.488	70.000			
00:00:00	3.672	70.000			
00:00:00	3.090	70.000			
00:00:00	1.763	70.000			
00:00:00	1.629	70.000			
00:00:00	0.838	70.000			
00:00:00	0.174	70.000			
00:00:00	0.023	70.000			
00:00:00	-0.903	70.000			
00:00:00	-0.723	70.000			
00:00:00	-0.790	70.000			
00:00:00	-0.793	70.000			
00:00:00	-0.224	70.000			
00:00:00	-0.569	70.000			
00:00:00	-0.239	70.000			
00:00:00	-0.117	70.000			
00:00:00	-0.270	70.000			
00:00:00	0.415	70.000			
00:00:00	0.223	70.000			
00:00:00	0.477	70.000			
00:00:00	0.844	70.000			
00:00:00	0.328	70.000			
00:00:00	0.556	70.000			
00:00:00	-0.009	70.000			
00:00:01	0.075	70.000			
00:00:01	0.388	70.000			
00:00:01	-0.281	70.000			
00:00:01	0.037	70.000			
00:00:01	-0.376	70.000			
00:00:01	-0.720	70.000			
00:00:01	-0.455	70.000			
00:00:01	-1.023	70.000			
00:00:01	-0.653	70.000			
00:00:01	-0.827	70.000			
00:00:01	-1.143	70.000			
00:00:01	-0.895	70.000			
00:00:01	-1.559	70.000			
00:00:01	-1.522	70.000			
00:00:01	-1.668	70.000			
00:00:01	-2.085	70.000			
00:00:01	-1.667	70.000			
00:00:01	-2.182	70.000			
00:00:01	-2.073	70.000			
00:00:01	-1.848	70.000			
00:00:01	-2.399	70.000			
00:00:01	-1.836	70.000			
00:00:01	-1.979	70.000			
00:00:01	-2.005	70.000			
00:00:01	-1.505	70.000			
00:00:01	-2.057	70.000			
00:00:01	-1.691	70.000			
00:00:01	-1.758	70.000			
00:00:01	-1.818	70.000			
00:00:01	-1.178	70.000			
00:00:01	-1.640	70.000			
00:00:01	-1.370	70.000			
00:00:01	-1.487	70.000			
00:00:01	-1.748	70.000			
00:00:01	-1.092	70.000			
00:00:01	-1.409	70.000			
00:00:01	-0.947	70.000			
00:00:01	-0.837	70.000			
00:00:01	-1.149	70.000			
00:00:01	-0.445	70.000			
00:00:01	-0.669	70.000			
00:00:01	-0.762	70.000			
00:00:01	-0.702	70.000			
00:00:01	-1.471	70.000			
00:00:01	-0.937	70.000			
00:00:01	-1.347	70.000			
00:00:01	-1.483	70.000			
00:00:01	-1.115	70.000			
00:00:01	-1.646	70.000			
00:00:01	-1.102	70.000			
00:00:01	-1.012	70.000			
00:00:01	-0.622	70.000			
00:00:01	0.860	70.000			
00:00:01	1.532	70.000			
00:00:01	3.196	70.000			
00:00:01	4.770	70.000			
00:00:01	6.026	70.000			
00:00:01	8.020	70.000			
00:00:01	8.982	70.000			
00:00:01	10.447	70.000			
00:00:01	11.679	70.000			
00:00:01	11.953	70.000			
00:00:01	12.964	70.000			
00:00:01	12.789	70.000			
00:00:01	12.832	70.000			
00:00:01	12.837	70.000			
00:00:01	11.905	70.000			
00:00:01	11.958	70.000			
00:00:01	11.077	70.000			
00:00:01	10.260	70.000			
00:00:01	9.992	70.000			
00:00:01	8.589	70.000			
00:00:01	8.103	69.818			
00:00:01	7.141	69.818			
00:00:01	6.106	69.818			
00:00:01	5.926	69.818			
00:00:01	4.650	69.823			
00:00:01	4.172	69.823			
00:00:01	3.512	69.823			
00:00:01	2.454	69.823			
00:00:01	2.289	69.823			
00:00:01	1.161	69.823			
00:00:01	0.668	69.823			
00:00:01	0.340	69.823			
00:00:01	-0.495	69.823			
00:00:01	-0.458	69.823			
00:00:01	-0.961	69.823			
00:00:01	-1.047	69.823			
00:00:01	-0.681	69.823			
00:00:01	-1.200	69.823			
00:00:01	-0.543	69.823			
00:00:01	-0.583	69.823			
00:00:01	-0.576	69.823			
00:00:01	0.048	69.823			
00:00:01	-0.434	69.823			
00:00:01	-0.110	69.823			
00:00:01	-0.148	69.823			
00:00:01	-0.482	69.823			
00:00:01	0.033	69.823			
00:00:01	-0.434	69.823			
00:00:01	-0.002	69.823			
00:00:01	0.115	69.823			
00:00:01	-0.409	69.823			
00:00:01	-0.041	69.823			
00:00:01	-0.583	69.823			
00:00:01	-0.526	69.823			
00:00:01	-0.372	69.823			
00:00:01	-1.148	69.823			
00:00:01	-0.768	69.823			
00:00:01	-0.970	69.823			
00:00:01	-1.018	69.823			
00:00:01	-0.723	69.823			
00:00:01	-1.507	69.823			
00:00:01	-1.366	69.823			
00:00:01	-1.761	69.823			
00:00:01	-2.072	69.823			
00:00:01	-1.740	69.823			
00:00:01	-2.262	69.823			
00:00:01	-1.959	69.823			
00:00:01	-2.044	69.823			
00:00:01	-2.407	69.823			
00:00:01	-1.821	69.823			
00:00:01	-2.258	69.823			
00:00:01	-2.205	69.823			
00:00:01	-2.109	69.823			
00:00:01	-2.521	69.823			
00:00:01	-2.079	69.823			
00:00:01	-2.416	69.823			
00:00:02	-1.972	69.823			
00:00:02	-1.451	69.823			
00:00:02	-1.768	69.823			
00:00:02	-1.122	69.823			
00:00:02	-1.341	69.823			
00:00:02	-1.256	69.823			
00:00:02	-0.801	69.823			
00:00:02	-1.230	69.823			
00:00:02	-0.850	69.823			
00:00:02	-1.070	69.823			
00:00:02	-1.302	69.823			
00:00:02	-0.824	69.823			
00:00:02	-1.231	69.823			
00:00:02	-0.854	69.823			
00:00:02	-0.934	69.823			
00:00:02	-1.278	69.823			
00:00:02	-0.967	69.823			
00:00:02	-1.734	69.823			
00:00:02	-1.625	69.823			
00:00:02	-1.535	69.823			
00:00:02	-1.974	69.823			
00:00:02	-1.489	69.823			
00:00:02	-1.954	69.823			
00:00:02	-1.856	69.823			
00:00:02	-1.326	69.823			
00:00:02	-1.193	69.823			
00:00:02	0.218	69.823			
00:00:02	1.175	69.823			
00:00:02	2.420	69.823			
00:00:02	4.394	69.823			
00:00:02	5.677	69.823			
00:00:02	7.735	69.823			
00:00:02	9.158	69.823			
00:00:02	10.251	69.823			
00:00:02	11.850	69.823			
00:00:02	12.336	69.823			
00:00:02	13.179	69.823			
00:00:02	13.625	69.823			
00:00:02	13.575	69.823			
00:00:02	14.099	69.823			
00:00:02	13.494	69.823			
00:00:02	13.205	69.823			
00:00:02	12.776	69.823			
00:00:02	11.613	69.823			
00:00:02	11.188	69.823			
00:00:02	10.043	69.823			
00:00:02	9.365	69.823			
00:00:02	8.935	69.823			
00:00:02	7.742	74.563			
00:00:02	7.476	74.563			
00:00:02	6.652	74.563			
00:00:02	5.883	74.563			
00:00:02	5.567	74.568			
00:00:02	4.429	74.568			
00:00:02	4.062	74.568			
00:00:02	3.243	74.568			
00:00:02	2.080	74.568			
00:00:02	1.880	74.568			
00:00:02	0.641	74.568			
00:00:02	0.417	74.568			
00:00:02	-0.005	74.568			
00:00:02	-0.706	74.568			
00:00:02	-0.427	74.568			
00:00:02	-0.989	74.568			
00:00:02	-0.743	74.568			
00:00:02	-0.272	74.568			
00:00:02	-0.468	74.568			
00:00:02	0.092	74.568			
00:00:02	-0.126	74.568			
00:00:02	-0.114	74.568			
00:00:02	0.358	74.568			
00:00:02	-0.007	74.568			
00:00:02	0.489	74.568			
00:00:02	0.244	74.568			
00:00:02	0.070	74.568			
00:00:02	0.324	74.568			
00:00:02	-0.355	74.568			
00:00:02	-0.202	74.568			
00:00:02	-0.533	74.568			
00:00:02	-0.880	74.568			
00:00:02	-0.430	74.568			
00:00:02	-0.953	74.568			
00:00:02	-0.832	74.568			
00:00:02	-0.926	74.568			
00:00:02	-1.461	74.568			
00:00:02	-0.985	74.568			
00:00:02	-1.453	74.568			
00:00:02	-1.299	74.568			
00:00:02	-1.006	74.568			
00:00:02	-1.648	74.568			
00:00:02	-1.454	74.568			
00:00:02	-2.122	74.568			
00:00:02	-2.397	74.568			
00:00:02	-2.091	74.568			
00:00:02	-2.458	74.568			
00:00:02	-1.959	74.568			
00:00:02	-2.087	74.568			
00:00:02	-2.307	74.568			
00:00:02	-1.911	74.568			
00:00:02	-2.382	74.568			
00:00:02	-2.072	74.568			
00:00:02	-2.042	74.568			
00:00:02	-2.291	74.568			
00:00:02	-1.713	74.568			
00:00:02	-2.016	74.568			
00:00:02	-1.629	74.568			
00:00:02	-1.458	74.568			
00:00:02	-1.616	74.568			
00:00:02	-0.922	74.568			
00:00:02	-1.135	74.568			
00:00:02	-0.940	74.568			
00:00:02	-0.684	74.568			
00:00:02	-1.155	74.568			
00:00:02	-0.739	74.568			
00:00:02	-0.995	74.568			
00:00:02	-0.990	74.568			
00:00:02	-0.618	74.568			
00:00:02	-1.225	74.568			
00:00:02	-0.831	74.568			
00:00:02	-1.141	74.568			
00:00:02	-1.511	74.568			
00:00:02	-1.318	74.568			
00:00:02	-2.042	74.568			
00:00:02	-1.866	74.568			
00:00:02	-2.009	74.568			
00:00:02	-2.394	74.568			
00:00:02	-1.869	74.568			
00:00:02	-2.135	74.568			
00:00:03	-1.773	74.568			
00:00:03	-1.316	74.568			
00:00:03	-1.065	74.568			
00:00:03	0.332	74.568			
00:00:03	1.139	74.568			
00:00:03	2.476	74.568			
00:00:03	4.308	74.568			
00:00:03	5.439	74.568			
00:00:03	7.369	74.568			
00:00:03	8.780	74.568			
00:00:03	10.231	74.568			
00:00:03	12.066	74.568			
00:00:03	12.564	74.568			
00:00:03	13.605	74.568			
00:00:03	13.829	74.568			
00:00:03	13.904	74.568			
00:00:03	14.287	74.568			
00:00:03	13.488	74.568			
00:00:03	13.299	74.568			
00:00:03	12.857	74.568			
00:00:03	11.870	74.568			
00:00:03	11.717	74.568			
00:00:03	10.608	74.568			
00:00:03	9.946	74.568			
00:00:03	9.466	73.143			
00:00:03	8.281	73.143			
00:00:03	8.097	73.143			
00:00:03	6.981	73.143			
00:00:03	6.322	73.148			
00:00:03	6.016	73.148			
00:00:03	4.878	73.148			
00:00:03	4.677	73.148			
00:00:03	3.652	73.148			
00:00:03	2.553	73.148			
00:00:03	2.010	73.148			
00:00:03	0.707	73.148			
00:00:03	0.506	73.148			
00:00:03	0.027	73.148			
00:00:03	-0.608	73.148			
00:00:03	-0.263	73.148			
00:00:03	-0.783	73.148			
00:00:03	-0.493	73.148			
00:00:03	-0.395	73.148			
00:00:03	-0.881	73.148			
00:00:03	-0.326	73.148			
00:00:03	-0.622	73.148			
00:00:03	-0.414	73.148			
00:00:03	-0.126	73.148			
00:00:03	-0.392	73.148			
00:00:03	0.188	73.148			
00:00:03	0.054	73.148			
00:00:03	0.145	73.148			
00:00:03	0.306	73.148			
00:00:03	-0.380	73.148			
00:00:03	-0.187	73.148			
00:00:03	-0.554	73.148			
00:00:03	-0.855	73.148			
00:00:03	-0.462	73.148			
00:00:03	-0.976	73.148			
00:00:03	-0.649	73.148			
00:00:03	-0.757	73.148			
00:00:03	-1.298	73.148			
00:00:03	-1.089	73.148			
00:00:03	-1.579	73.148			
00:00:03	-1.270	73.148			
00:00:03	-1.303	73.148			
00:00:03	-2.004	73.148			
00:00:03	-1.861	73.148			
00:00:03	-2.504	73.148			
00:00:03	-2.528	73.148			
00:00:03	-2.349	73.148			
00:00:03	-2.703	73.148			
00:00:03	-2.052	73.148			
00:00:03	-2.217	73.148			
00:00:03	-2.235	73.148			
00:00:03	-1.801	73.148			
00:00:03	-2.339	73.148			
00:00:03	-1.925	73.148			
00:00:03	-2.067	73.148			
00:00:03	-2.232	73.148			
00:00:03	-1.815	73.148			
00:00:03	-2.155	73.148			
00:00:03	-1.610	73.148			
00:00:03	-1.287	73.148			
00:00:03	-1.418	73.148			
00:00:03	-0.820	73.148			
00:00:03	-1.245	73.148			
00:00:03	-1.038	73.148			
00:00:03	-0.734	73.148			
00:00:03	-1.093	73.148			
00:00:03	-0.511	73.148			
00:00:03	-0.990	73.148			
00:00:03	-0.961	73.148			
00:00:03	-0.837	73.148			
00:00:03	-1.530	73.148			
00:00:03	-1.290	73.148			
00:00:03	-1.690	73.148			
00:00:03	-1.710	73.148			
00:00:03	-1.296	73.148			
00:00:03	-1.798	73.148			
00:00:03	-1.400	73.148			
00:00:03	-1.597	73.148			
00:00:03	-1.828	73.148			
00:00:03	-1.353	73.148			
00:00:03	-1.832	73.148			
00:00:03	-1.612	73.148			
00:00:03	-1.381	73.148			
00:00:03	-1.511	73.148			
00:00:03	-0.418	73.148			
00:00:03	-0.135	73.148			
00:00:03	1.063	73.148			
00:00:03	2.519	73.148			
00:00:03	3.473	73.148			
00:00:03	5.711	73.148			
00:00:03	7.152	73.148			
00:00:03	8.840	73.148			
00:00:03	10.540	73.148			
00:00:03	11.180	73.148			
00:00:03	12.580	73.148			
00:00:03	13.054	73.148			
00:00:03	13.193	73.148			
00:00:03	13.610	73.148			
00:00:03	12.858	73.148			
00:00:03	13.070	73.148			
00:00:03	12.771	73.148			
00:00:03	11.953	73.148			
00:00:03	12.008	73.148			
00:00:03	10.994	73.148			
00:00:04	10.438	73.148			
00:00:04	9.839	73.148			
00:00:04	8.695	73.148			
00:00:04	8.518	73.148			
00:00:04	7.495	73.143			
00:00:04	7.008	73.143			
00:00:04	6.543	73.143			
00:00:04	5.377	73.143			
00:00:04	5.095	73.148			
00:00:04	3.972	73.148			
00:00:04	3.155	73.148			
00:00:04	2.738	73.148			
00:00:04	1.549	73.148			
00:00:04	1.099	73.148			
00:00:04	0.297	73.148			
00:00:04	-0.407	73.148			
00:00:04	-0.426	73.148			
00:00:04	-1.175	73.148			
00:00:04	-1.069	73.148			
00:00:04	-1.177	73.148			
00:00:04	-1.421	73.148			
00:00:04	-0.858	73.148			
00:00:04	-1.395	73.148			
00:00:04	-1.087	73.148			
00:00:04	-0.700	73.148			
00:00:04	-1.003	73.148			
00:00:04	-0.350	73.148			
00:00:04	-0.635	73.148			
00:00:04	-0.420	73.148			
00:00:04	0.087	73.148			
00:00:04	-0.309	73.148			
00:00:04	0.082	73.148			
00:00:04	-0.247	73.148			
00:00:04	-0.422	73.148			
00:00:04	-0.236	73.148			
00:00:04	-1.022	73.148			
00:00:04	-0.888	73.148			
00:00:04	-1.108	73.148			
00:00:04	-1.384	73.148			
00:00:04	-1.115	73.148			
00:00:04	-1.833	73.148			
00:00:04	-1.706	73.148			
00:00:04	-1.783	73.148			
00:00:04	-2.312	73.148			
00:00:04	-1.953	73.148			
00:00:04	-2.522	73.148			
00:00:04	-2.484	73.148			
00:00:04	-2.374	73.148			
00:00:04	-2.724	73.148			
00:00:04	-2.088	73.148			
00:00:04	-2.403	73.148			
00:00:04	-2.491	73.148			
00:00:04	-2.298	73.148			
00:00:04	-2.728	73.148			
00:00:04	-2.211	73.148			
00:00:04	-2.384	73.148			
00:00:04	-2.463	73.148			
00:00:04	-1.940	73.148			
00:00:04	-2.351	73.148			
00:00:04	-1.828	73.148			
00:00:04	-1.929	73.148			
00:00:04	-2.173	73.148			
00:00:04	-1.605	73.148			
00:00:04	-1.944	73.148			
00:00:04	-1.421	73.148			
00:00:04	-1.310	73.148			
00:00:04	-1.658	73.148			
00:00:04	-1.072	73.148			
00:00:04	-1.507	73.148			
00:00:04	-1.335	73.148			
00:00:04	-1.062	73.148			
00:00:04	-1.534	73.148			
00:00:04	-0.929	73.148			
00:00:04	-1.211	73.148			
00:00:04	-1.203	73.148			
00:00:04	-0.937	73.148			
00:00:04	-1.394	73.148			
00:00:04	-1.041	73.148			
00:00:04	-1.420	73.148			
00:00:04	-1.781	73.148			
00:00:04	-1.495	73.148			
00:00:04	-2.041	73.148			
00:00:04	-1.752	73.148			
00:00:04	-1.741	73.148			
00:00:04	-2.000	73.148			
00:00:04	-1.128	73.148			
00:00:04	-1.092	73.148			
00:00:04	-0.139	73.148			
00:00:04	1.057	73.148			
00:00:04	1.918	73.148			
00:00:04	3.757	73.148			
00:00:04	4.747	73.148			
00:00:04	6.397	73.148			
00:00:04	8.065	73.148			
00:00:04	8.912	73.148			
00:00:04	10.628	73.148			
00:00:04	11.361	73.148			
00:00:04	11.922	73.148			
00:00:04	12.810	73.148			
00:00:04	12.643	73.148			
00:00:04	13.114	73.148			
00:00:04	12.637	73.148			
00:00:04	11.950	73.148			
00:00:04	11.822	73.148			
00:00:04	10.633	73.148			
00:00:04	10.372	73.148			
00:00:04	9.808	73.148			
00:00:04	8.747	73.148			
00:00:04	8.693	71.776			
00:00:04	7.601	71.776			
00:00:04	7.175	71.776			
00:00:04	6.632	71.776			
00:00:04	5.397	71.781			
00:00:04	5.221	71.781			
00:00:04	4.040	71.781			
00:00:04	3.322	71.781			
00:00:04	2.880	71.781			
00:00:04	1.765	71.781			
00:00:04	1.649	71.781			
00:00:04	0.592	71.781			
00:00:04	-0.093	71.781			
00:00:04	-0.156	71.781			
00:00:04	-1.118	71.781			
00:00:04	-0.949	71.781			
00:00:04	-1.206	71.781			
00:00:04	-1.532	71.781			
00:00:04	-0.773	71.781			
00:00:04	-1.118	71.781			
00:00:05	-0.791	71.781			
00:00:05	-0.704	71.781			
00:00:05	-1.042	71.781			
00:00:05	-0.394	71.781			
00:00:05	-0.594	71.781			
00:00:05	-0.296	71.781			
00:00:05	-0.016	71.781			
00:00:05	-0.414	71.781			
00:00:05	0.143	71.781			
00:00:05	-0.226	71.781			
00:00:05	-0.214	71.781			
00:00:05	0.019	71.781			
00:00:05	-0.662	71.781			
00:00:05	-0.371	71.781			
00:00:05	-0.717	71.781			
00:00:05	-0.991	71.781			
00:00:05	-0.692	71.781			
00:00:05	-1.478	71.781			
00:00:05	-1.353	71.781			
00:00:05	-1.574	71.781			
00:00:05	-2.008	71.781			
00:00:05	-1.807	71.781			
00:00:05	-2.504	71.781			
00:00:05	-2.313	71.781			
00:00:05	-2.198	71.781			
00:00:05	-2.598	71.781			
00:00:05	-2.101	71.781			
00:00:05	-2.530	71.781			
00:00:05	-2.468	71.781			
00:00:05	-2.308	71.781			
00:00:05	-2.758	71.781			
00:00:05	-2.207	71.781			
00:00:05	-2.367	71.781			
00:00:05	-2.218	71.781			
00:00:05	-1.872	71.781			
00:00:05	-2.428	71.781			
00:00:05	-1.976	71.781			
00:00:05	-1.977	71.781			
00:00:05	-2.013	71.781			
00:00:05	-1.436	71.781			
00:00:05	-1.837	71.781			
00:00:05	-1.440	71.781			
00:00:05	-1.293	71.781			
00:00:05	-1.476	71.781			
00:00:05	-0.870	71.781			
00:00:05	-1.317	71.781			
00:00:05	-1.127	71.781			
00:00:05	-1.040	71.781			
00:00:05	-1.358	71.781			
00:00:05	-0.840	71.781			
00:00:05	-1.289	71.781			
00:00:05	-1.388	71.781			
00:00:05	-1.330	71.781			
00:00:05	-1.884	71.781			
00:00:05	-1.393	71.781			
00:00:05	-1.585	71.781			
00:00:05	-1.634	71.781			
00:00:05	-1.400	71.781			
00:00:05	-2.155	71.781			
00:00:05	-1.698	71.781			
00:00:05	-1.732	71.781			
00:00:05	-1.742	71.781			
00:00:05	-0.732	71.781			
00:00:05	-0.888	71.781			
00:00:05	0.160	71.781			
00:00:05	1.138	71.781			
00:00:05	1.852	71.781			
00:00:05	3.809	71.781			
00:00:05	4.783	71.781			
00:00:05	6.634	71.781			
00:00:05	8.673	71.781			
00:00:05	9.489	71.781			
00:00:05	11.310	71.781			
00:00:05	11.816	71.781			
00:00:05	12.468	71.781			
00:00:05	13.452	71.781			
00:00:05	13.246	71.781			
00:00:05	13.906	71.781			
00:00:05	13.541	71.781			
00:00:05	12.951	71.781			
00:00:05	12.855	71.781			
00:00:05	11.724	71.781			
00:00:05	11.657	71.781			
00:00:05	11.100	71.781			
00:00:05	10.297	71.781			
00:00:05	10.257	71.781			
00:00:05	8.916	71.781			
00:00:05	8.365	71.781			
00:00:05	7.572	73.143			
00:00:05	6.416	73.143			
00:00:05	6.257	73.143			
00:00:05	5.229	73.143			
00:00:05	4.725	73.148			
00:00:05	4.089	73.148			
00:00:05	2.674	73.148			
00:00:05	2.219	73.148			
00:00:05	0.962	73.148			
00:00:05	0.103	73.148			
00:00:05	-0.111	73.148			
00:00:05	-1.186	73.148			
00:00:05	-1.007	73.148			
00:00:05	-1.348	73.148			
00:00:05	-1.626	73.148			
00:00:05	-1.229	73.148			
00:00:05	-1.848	73.148			
00:00:05	-1.359	73.148			
00:00:05	-1.201	73.148			
00:00:05	-1.137	73.148			
00:00:05	-0.331	73.148			
00:00:05	-0.527	73.148			
00:00:05	-0.070	73.148			
00:00:05	0.082	73.148			
00:00:05	-0.146	73.148			
00:00:05	0.399	73.148			
00:00:05	-0.043	73.148			
00:00:05	-0.031	73.148			
00:00:05	-0.056	73.148			
00:00:05	-0.756	73.148			
00:00:05	-0.393	73.148			
00:00:05	-0.951	73.148			
00:00:05	-1.227	73.148			
00:00:05	-1.001	73.148			
00:00:05	-1.707	73.148			
00:00:05	-1.364	73.148			
00:00:05	-1.709	73.148			
00:00:05	-2.090	73.148			
00:00:05	-1.777	73.148			
00:00:05	-2.481	73.148			
00:00:06	-2.257	73.148			
00:00:06	-2.272	73.148			
00:00:06	-2.583	73.148			
00:00:06	-2.118	73.148			
00:00:06	-2.541	73.148			
00:00:06	-2.328	73.148			
00:00:06	-2.171	73.148			
00:00:06	-2.772	73.148			
00:00:06	-2.088	73.148			
00:00:06	-2.477	73.148			
00:00:06	-2.413	73.148			
00:00:06	-1.884	73.148			
00:00:06	-2.438	73.148			
00:00:06	-1.708	73.148			
00:00:06	-1.958	73.148			
00:00:06	-2.175	73.148			
00:00:06	-1.506	73.148			
00:00:06	-2.120	73.148			
00:00:06	-1.692	73.148			
00:00:06	-1.729	73.148			
00:00:06	-1.880	73.148			
00:00:06	-1.245	73.148			
00:00:06	-1.696	73.148			
00:00:06	-1.315	73.148			
00:00:06	-1.269	73.148			
00:00:06	-1.703	73.148			
00:00:06	-1.346	73.148			
00:00:06	-1.878	73.148			
00:00:06	-1.808	73.148			
00:00:06	-1.716	73.148			
00:00:06	-2.206	73.148			
00:00:06	-1.636	73.148			
00:00:06	-1.949	73.148			
00:00:06	-1.886	73.148			
00:00:06	-1.556	73.148			
00:00:06	-1.914	73.148			
00:00:06	-1.489	73.148			
00:00:06	-1.715	73.148			
00:00:06	-1.878	73.148			
00:00:06	-1.509	73.148			
00:00:06	-1.970	73.148			
00:00:06	-1.229	73.148			
00:00:06	-0.748	73.148			
00:00:06	-0.271	73.148			
00:00:06	1.156	73.148			
00:00:06	1.738	73.148			
00:00:06	3.393	73.148			
00:00:06	5.027	73.148			
00:00:06	6.304	73.148			
00:00:06	8.512	73.148			
00:00:06	9.714	73.148			
00:00:06	11.199	73.148			
00:00:06	12.679	73.148			
00:00:06	13.110	73.148			
00:00:06	14.212	73.148			
00:00:06	14.090	73.148			
00:00:06	13.930	73.148			
00:00:06	13.950	73.148			
00:00:06	13.079	73.148			
00:00:06	13.087	73.148			
00:00:06	12.361	73.148			
00:00:06	11.475	73.148			
00:00:06	11.193	73.148			
00:00:06	9.975	73.148			
00:00:06	9.672	71.776			
00:00:06	9.035	71.776			
00:00:06	8.093	71.776			
00:00:06	7.913	71.776			
00:00:06	6.564	71.781			
00:00:06	5.853	71.781			
00:00:06	5.100	71.781			
00:00:06	3.969	71.781			
00:00:06	3.773	71.781			
00:00:06	2.712	71.781			
00:00:06	2.168	71.781			
00:00:06	1.652	71.781			
00:00:06	0.603	71.781			
00:00:06	0.441	71.781			
00:00:06	-0.479	71.781			
00:00:06	-1.032	71.781			
00:00:06	-1.035	71.781			
00:00:06	-1.672	71.781			
00:00:06	-1.159	71.781			
00:00:06	-1.203	71.781			
00:00:06	-1.088	71.781			
00:00:06	-0.353	71.781			
00:00:06	-0.626	71.781			
00:00:06	-0.071	71.781			
00:00:06	-0.048	71.781			
00:00:06	-0.533	71.781			
00:00:06	-0.070	71.781			
00:00:06	-0.525	71.781			
00:00:06	-0.208	71.781			
00:00:06	0.058	71.781			
00:00:06	-0.373	71.781			
00:00:06	0.038	71.781			
00:00:06	-0.441	71.781			
00:00:06	-0.634	71.781			
00:00:06	-0.639	71.781			
00:00:06	-1.239	71.781			
00:00:06	-1.162	71.781			
00:00:06	-1.585	71.781			
00:00:06	-1.866	71.781			
00:00:06	-1.743	71.781			
00:00:06	-2.240	71.781			
00:00:06	-1.860	71.781			
00:00:06	-1.952	71.781			
00:00:06	-2.341	71.781			
00:00:06	-2.095	71.781			
00:00:06	-2.758	71.781			
00:00:06	-2.601	71.781			
00:00:06	-2.543	71.781			
00:00:06	-2.870	71.781			
00:00:06	-2.342	71.781			
00:00:06	-2.740	71.781			
00:00:06	-2.438	71.781			
00:00:06	-2.011	71.781			
00:00:06	-2.297	71.781			
00:00:06	-1.934	71.781			
00:00:06	-2.244	71.781			
00:00:06	-2.269	71.781			
00:00:06	-1.980	71.781			
00:00:06	-2.350	71.781			
00:00:06	-1.817	71.781			
00:00:06	-2.013	71.781			
00:00:06	-2.142	71.781			
00:00:06	-1.610	71.781			
00:00:06	-1.927	71.781			
00:00:07	-1.325	71.781			
00:00:07	-1.273	71.781			
00:00:07	-1.504	71.781			
00:00:07	-1.044	71.781			
00:00:07	-1.526	71.781			
00:00:07	-1.460	71.781			
00:00:07	-1.419	71.781			
00:00:07	-1.836	71.781			
00:00:07	-1.289	71.781			
00:00:07	-1.522	71.781			
00:00:07	-1.272	71.781			
00:00:07	-1.018	71.781			
00:00:07	-1.598	71.781			
00:00:07	-1.263	71.781			
00:00:07	-1.686	71.781			
00:00:07	-1.917	71.781			
00:00:07	-1.716	71.781			
00:00:07	-2.068	71.781			
00:00:07	-1.597	71.781			
00:00:07	-1.749	71.781			
00:00:07	-1.669	71.781			
00:00:07	-0.923	71.781			
00:00:07	-1.081	71.781			
00:00:07	-0.134	71.781			
00:00:07	0.741	71.781			
00:00:07	1.765	71.781			
00:00:07	3.769	71.781			
00:00:07	4.850	71.781			
00:00:07	6.684	71.781			
00:00:07	8.533	71.781			
00:00:07	9.664	71.781			
00:00:07	11.459	71.781			
00:00:07	12.123	71.781			
00:00:07	13.065	71.781			
00:00:07	13.745	71.781			
00:00:07	13.564	71.781			
00:00:07	14.081	71.781			
00:00:07	13.572	71.781			
00:00:07	13.297	71.781			
00:00:07	13.258	71.781			
00:00:07	12.250	71.781			
00:00:07	12.137	71.781			
00:00:07	11.293	71.781			
00:00:07	10.296	71.781			
00:00:07	9.825	71.111			
00:00:07	8.236	71.111			
00:00:07	7.731	71.111			
00:00:07	6.781	71.111			
00:00:07	5.618	71.116			
00:00:07	5.389	71.116			
00:00:07	4.339	71.116			
00:00:07	3.660	71.116			
00:00:07	3.125	71.116			
00:00:07	1.969	71.116			
00:00:07	1.708	71.116			
00:00:07	0.636	71.116			
00:00:07	0.217	71.116			
00:00:07	0.036	71.116			
00:00:07	-0.813	71.116			
00:00:07	-0.581	71.116			
00:00:07	-1.048	71.116			
00:00:07	-1.368	71.116			
00:00:07	-1.060	71.116			
00:00:07	-1.513	71.116			
00:00:07	-0.768	71.116			
00:00:07	-0.490	71.116			
00:00:07	-0.460	71.116			
00:00:07	0.270	71.116			
00:00:07	-0.083	71.116			
00:00:07	0.219	71.116			
00:00:07	0.300	71.116			
00:00:07	-0.079	71.116			
00:00:07	0.480	71.116			
00:00:07	0.066	71.116			
00:00:07	0.061	71.116			
00:00:07	0.036	71.116			
00:00:07	-0.745	71.116			
00:00:07	-0.446	71.116			
00:00:07	-1.163	71.116			
00:00:07	-1.535	71.116			
00:00:07	-1.333	71.116			
00:00:07	-1.884	71.116			
00:00:07	-1.448	71.116			
00:00:07	-1.790	71.116			
00:00:07	-2.109	71.116			
00:00:07	-1.771	71.116			
00:00:07	-2.445	71.116			
00:00:07	-2.040	71.116			
00:00:07	-2.045	71.116			
00:00:07	-2.300	71.116			
00:00:07	-1.669	71.116			
00:00:07	-2.156	71.116			
00:00:07	-2.034	71.116			
00:00:07	-2.149	71.116			
00:00:07	-2.707	71.116			
00:00:07	-2.257	71.116			
00:00:07	-2.694	71.116			
00:00:07	-2.428	71.116			
00:00:07	-2.056	71.116			
00:00:07	-2.317	71.116			
00:00:07	-1.630	71.116			
00:00:07	-1.976	71.116			
00:00:07	-2.042	71.116			
00:00:07	-1.570	71.116			
00:00:07	-1.998	71.116			
00:00:07	-1.544	71.116			
00:00:07	-1.737	71.116			
00:00:07	-1.935	71.116			
00:00:07	-1.529	71.116			
00:00:07	-2.046	71.116			
00:00:07	-1.495	71.116			
00:00:07	-1.369	71.116			
00:00:07	-1.548	71.116			
00:00:07	-0.835	71.116			
00:00:07	-1.259	71.116			
00:00:07	-0.934	71.116			
00:00:07	-0.774	71.116			
00:00:07	-1.330	71.116			
00:00:07	-0.863	71.116			
00:00:07	-1.339	71.116			
00:00:07	-1.359	71.116			
00:00:07	-1.124	71.116			
00:00:07	-1.439	71.116			
00:00:07	-0.887	71.116			
00:00:07	-1.184	71.116			
00:00:07	-1.265	71.116			
00:00:07	-1.111	71.116			
00:00:07	-1.959	71.116			
00:00:08	-1.709	71.116			
00:00:08	-1.722	71.116			
00:00:08	-1.704	71.116			
00:00:08	-0.792	71.116			
00:00:08	-0.517	71.116			
00:00:08	0.964	71.116			
00:00:08	2.430	71.116			
00:00:08	3.691	71.116			
00:00:08	5.838	71.116			
00:00:08	7.105	71.116			
00:00:08	8.951	71.116			
00:00:08	10.537	71.116			
00:00:08	11.352	71.116			
00:00:08	12.823	71.116			
00:00:08	13.021	71.116			
00:00:08	13.402	71.116			
00:00:08	13.830	71.116			
00:00:08	13.249	71.116			
00:00:08	13.512	71.116			
00:00:08	12.853	71.116			
00:00:08	12.045	71.116			
00:00:08	11.911	71.116			
00:00:08	10.621	71.116			
00:00:08	10.295	71.116			
00:00:08	9.313	71.111			
00:00:08	8.068	71.111			
00:00:08	7.752	71.111			
00:00:08	6.518	71.111			
00:00:08	5.930	71.116			
00:00:08	5.139	71.116			
00:00:08	4.006	71.116			
00:00:08	3.693	71.116			
00:00:08	2.446	71.116			
00:00:08	1.714	71.116			
00:00:08	1.025	71.116			
00:00:08	-0.093	71.116			
00:00:08	-0.193	71.116			
00:00:08	-1.060	71.116			
00:00:08	-1.552	71.116			
00:00:08	-1.352	71.116			
00:00:08	-1.838	71.116			
00:00:08	-1.110	71.116			
00:00:08	-0.974	71.116			
00:00:08	-0.915	71.116			
00:00:08	-0.328	71.116			
00:00:08	-0.791	71.116			
00:00:08	-0.304	71.116			
00:00:08	-0.184	71.116			
00:00:08	-0.297	71.116			
00:00:08	0.287	71.116			
00:00:08	-0.146	71.116			
00:00:08	0.036	71.116			
00:00:08	0.149	71.116			
00:00:08	-0.344	71.116			
00:00:08	-0.001	71.116			
00:00:08	-0.594	71.116			
00:00:08	-0.675	71.116			
00:00:08	-0.495	71.116			
00:00:08	-1.193	71.116			
00:00:08	-0.893	71.116			
00:00:08	-1.453	71.116			
00:00:08	-1.792	71.116			
00:00:08	-1.620	71.116			
00:00:08	-2.182	71.116			
00:00:08	-1.707	71.116			
00:00:08	-1.782	71.116			
00:00:08	-2.008	71.116			
00:00:08	-1.668	71.116			
00:00:08	-2.321	71.116			
00:00:08	-2.205	71.116			
00:00:08	-2.368	71.116			
00:00:08	-2.609	71.116			
00:00:08	-2.115	71.116			
00:00:08	-2.518	71.116			
00:00:08	-2.279	71.116			
00:00:08	-2.248	71.116			
00:00:08	-2.686	71.116			
00:00:08	-2.214	71.116			
00:00:08	-2.622	71.116			
00:00:08	-2.561	71.116			
00:00:08	-2.279	71.116			
00:00:08	-2.797	71.116			
00:00:08	-2.178	71.116			
00:00:08	-2.219	71.116			
00:00:08	-2.209	71.116			
00:00:08	-1.704	71.116			
00:00:08	-2.089	71.116			
00:00:08	-1.612	71.116			
00:00:08	-1.601	71.116			
00:00:08	-1.675	71.116			
00:00:08	-1.218	71.116			
00:00:08	-1.673	71.116			
00:00:08	-1.255	71.116			
00:00:08	-1.083	71.116			
00:00:08	-1.193	71.116			
00:00:08	-0.475	71.116			
00:00:08	-0.873	71.116			
00:00:08	-0.803	71.116			
00:00:08	-0.716	71.116			
00:00:08	-1.453	71.116			
00:00:08	-1.178	71.116			
00:00:08	-1.707	71.116			
00:00:08	-1.701	71.116			
00:00:08	-1.364	71.116			
00:00:08	-1.994	71.116			
00:00:08	-1.679	71.116			
00:00:08	-1.991	71.116			
00:00:08	-2.143	71.116			
00:00:08	-1.689	71.116			
00:00:08	-1.887	71.116			
00:00:08	-0.964	71.116			
00:00:08	-0.311	71.116			
00:00:08	0.160	71.116			
00:00:08	1.801	71.116			
00:00:08	2.731	71.116			
00:00:08	4.629	71.116			
00:00:08	6.460	71.116			
00:00:08	7.973	71.116			
00:00:08	10.227	71.116			
00:00:08	11.346	71.116			
00:00:08	12.770	71.116			
00:00:08	13.925	71.116			
00:00:08	14.070	71.116			
00:00:08	14.842	71.116			
00:00:08	14.512	71.116			
00:00:08	14.281	71.116			
00:00:08	14.278	71.116			
00:00:08	13.361	71.116			
00:00:09	13.232	71.116			
00:00:09	12.373	71.116			
00:00:09	11.359	71.116			
00:00:09	10.899	71.116			
00:00:09	9.420	71.111			
00:00:09	8.966	71.111			
00:00:09	8.191	71.111			
00:00:09	7.251	71.111			
00:00:09	7.081	71.116			
00:00:09	5.818	71.116			
00:00:09	5.128	71.116			
00:00:09	4.352	71.116			
00:00:09	3.153	71.116			
00:00:09	2.837	71.116			
00:00:09	1.552	71.116			
00:00:09	0.762	71.116			
00:00:09	0.402	71.116			
00:00:09	-0.397	71.116			
00:00:09	-0.141	71.116			
00:00:09	-0.688	71.116			
00:00:09	-1.030	71.116			
00:00:09	-0.831	71.116			
00:00:09	-1.434	71.116			
00:00:09	-1.130	71.116			
00:00:09	-1.230	71.116			
00:00:09	-1.365	71.116			
00:00:09	-0.872	71.116			
00:00:09	-1.112	71.116			
00:00:09	-0.493	71.116			
00:00:09	-0.267	71.116			
00:00:09	-0.335	71.116			
00:00:09	0.436	71.116			
00:00:09	-0.001	71.116			
00:00:09	-0.075	71.116			
00:00:09	-0.140	71.116			
00:00:09	-0.703	71.116			
00:00:09	-0.283	71.116			
00:00:09	-0.708	71.116			
00:00:09	-0.719	71.116			
00:00:09	-0.484	71.116			
00:00:09	-1.001	71.116			
00:00:09	-0.712	71.116			
00:00:09	-1.226	71.116			
00:00:09	-1.576	71.116			
00:00:09	-1.310	71.116			
00:00:09	-1.941	71.116			
00:00:09	-1.677	71.116			
00:00:09	-1.883	71.116			
00:00:09	-2.353	71.116			
00:00:09	-2.059	71.116			
00:00:09	-2.624	71.116			
00:00:09	-2.506	71.116			
00:00:09	-2.481	71.116			
00:00:09	-2.902	71.116			
00:00:09	-2.468	71.116			
00:00:09	-2.846	71.116			
00:00:09	-2.740	71.116			
00:00:09	-2.538	71.116			
00:00:09	-2.920	71.116			
00:00:09	-2.500	71.116			
00:00:09	-2.827	71.116			
00:00:09	-2.871	71.116			
00:00:09	-2.545	71.116			
00:00:09	-2.969	71.116			
00:00:09	-2.370	71.116			
00:00:09	-2.299	71.116			
00:00:09	-2.168	71.116			
00:00:09	-1.590	71.116			
00:00:09	-1.933	71.116			
00:00:09	-1.527	71.116			
00:00:09	-1.494	71.116			
00:00:09	-1.642	71.116			
00:00:09	-1.079	71.116			
00:00:09	-1.419	71.116			
00:00:09	-1.096	71.116			
00:00:09	-1.069	71.116			
00:00:09	-1.465	71.116			
00:00:09	-1.075	71.116			
00:00:09	-1.559	71.116			
00:00:09	-1.363	71.116			
00:00:09	-1.152	71.116			
00:00:09	-1.714	71.116			
00:00:09	-1.429	71.116			
00:00:09	-1.874	71.116			
00:00:09	-2.019	71.116			
00:00:09	-1.561	71.116			
00:00:09	-2.010	71.116			
00:00:09	-1.720	71.116			
00:00:09	-1.860	71.116			
00:00:09	-1.867	71.116			
00:00:09	-1.087	71.116			
00:00:09	-1.060	71.116			
00:00:09	0.191	71.116			
00:00:09	1.530	71.116			
00:00:09	2.936	71.116			
00:00:09	5.199	71.116			
00:00:09	6.468	71.116			
00:00:09	8.256	71.116			
00:00:09	9.980	71.116			
00:00:09	11.101	71.116			
00:00:09	12.839	71.116			
00:00:09	13.517	71.116			
00:00:09	14.253	71.116			
00:00:09	14.951	71.116			
00:00:09	14.669	71.116			
00:00:09	14.989	71.116			
00:00:09	14.266	71.116			
00:00:09	13.514	71.116			
00:00:09	13.125	71.116			
00:00:09	11.775	71.116			
00:00:09	11.356	71.116			
00:00:09	10.210	71.116			
00:00:09	9.128	71.111			
00:00:09	8.820	71.111			
00:00:09	7.697	71.111			
00:00:09	7.286	71.111			
00:00:09	6.778	71.116			
00:00:09	5.723	71.116			
00:00:09	5.351	71.116			
00:00:09	4.114	71.116			
00:00:09	3.478	71.116			
00:00:09	2.904	71.116			
00:00:09	1.639	71.116			
00:00:09	1.244	71.116			
00:00:09	0.202	71.116			
00:00:09	-0.318	71.116			
00:00:09	-0.486	71.116			
00:00:09	-1.315	71.116			
00:00:10	-1.005	71.116			
00:00:10	-1.273	71.116			
00:00:10	-1.330	71.116			
00:00:10	-0.847	71.116			
00:00:10	-1.303	71.116			
00:00:10	-0.903	71.116			
00:00:10	-0.867	71.116			
00:00:10	-1.146	71.116			
00:00:10	-0.674	71.116			
00:00:10	-0.998	71.116			
00:00:10	-0.537	71.116			
00:00:10	-0.561	71.116			
00:00:10	-0.883	71.116			
00:00:10	-0.183	71.116			
00:00:10	-0.476	71.116			
00:00:10	-0.422	71.116			
00:00:10	-0.297	71.116			
00:00:10	-0.856	71.116			
00:00:10	-0.501	71.116			
00:00:10	-0.829	71.116			
00:00:10	-1.117	71.116			
00:00:10	-1.018	71.116			
00:00:10	-1.557	71.116			
00:00:10	-1.257	71.116			
00:00:10	-1.555	71.116			
00:00:10	-1.822	71.116			
00:00:10	-1.472	71.116			
00:00:10	-1.952	71.116			
00:00:10	-1.731	71.116			
00:00:10	-1.946	71.116			
00:00:10	-2.509	71.116			
00:00:10	-2.272	71.116			
00:00:10	-2.870	71.116			
00:00:10	-2.841	71.116			
00:00:10	-2.786	71.116			
00:00:10	-3.058	71.116			
00:00:10	-2.383	71.116			
00:00:10	-2.647	71.116			
00:00:10	-2.431	71.116			
00:00:10	-2.177	71.116			
00:00:10	-2.617	71.116			
00:00:10	-2.009	71.116			
00:00:10	-2.143	71.116			
00:00:10	-2.083	71.116			
00:00:10	-1.740	71.116			
00:00:10	-2.173	71.116			
00:00:10	-1.688	71.116			
00:00:10	-1.757	71.116			
00:00:10	-1.811	71.116			
00:00:10	-1.140	71.116			
00:00:10	-1.449	71.116			
00:00:10	-1.070	71.116			
00:00:10	-1.044	71.116			
00:00:10	-1.321	71.116			
00:00:10	-0.788	71.116			
00:00:10	-1.128	71.116			
00:00:10	-1.042	71.116			
00:00:10	-1.107	71.116			
00:00:10	-1.687	71.116			
00:00:10	-1.284	71.116			
00:00:10	-1.766	71.116			
00:00:10	-1.957	71.116			
00:00:10	-1.786	71.116			
00:00:10	-2.197	71.116			
00:00:10	-1.723	71.116			
00:00:10	-2.040	71.116			
00:00:10	-2.334	71.116			
00:00:10	-2.088	71.116			
00:00:10	-2.503	71.116			
00:00:10	-2.073	71.116			
00:00:10	-1.843	71.116			
00:00:10	-1.512	71.116			
00:00:10	-0.160	71.116			
00:00:10	0.729	71.116			
00:00:10	2.304	71.116			
00:00:10	3.783	71.116			
00:00:10	5.117	71.116			
00:00:10	7.280	71.116			
00:00:10	8.628	71.116			
00:00:10	10.401	71.116			
00:00:10	11.932	71.116			
00:00:10	12.512	71.116			
00:00:10	13.742	71.116			
00:00:10	13.837	71.116			
00:00:10	13.950	71.116			
00:00:10	14.132	71.116			
00:00:10	13.449	71.116			
00:00:10	13.441	71.116			
00:00:10	12.620	71.116			
00:00:10	11.788	71.116			
00:00:10	11.419	71.116			
00:00:10	10.053	71.116			
00:00:10	9.446	71.111			
00:00:10	8.606	71.111			
00:00:10	7.661	71.111			
00:00:10	7.488	71.111			
00:00:10	6.328	71.116			
00:00:10	5.833	71.116			
00:00:10	5.195	71.116			
00:00:10	3.917	71.116			
00:00:10	3.462	71.116			
00:00:10	2.254	71.116			
00:00:10	1.537	71.116			
00:00:10	1.146	71.116			
00:00:10	0.165	71.116			
00:00:10	-0.005	71.116			
00:00:10	-0.837	71.116			
00:00:10	-1.237	71.116			
00:00:10	-1.171	71.116			
00:00:10	-1.724	71.116			
00:00:10	-1.234	71.116			
00:00:10	-1.280	71.116			
00:00:10	-1.316	71.116			
00:00:10	-0.783	71.116			
00:00:10	-1.127	71.116			
00:00:10	-0.701	71.116			
00:00:10	-0.359	71.116			
00:00:10	-0.229	71.116			
00:00:10	0.371	71.116			
00:00:10	-0.011	71.116			
00:00:10	0.256	71.116			
00:00:10	0.440	71.116			
00:00:10	-0.081	71.116			
00:00:10	0.250	71.116			
00:00:10	-0.297	71.116			
00:00:10	-0.546	71.116			
00:00:10	-0.423	71.116			
00:00:10	-0.799	71.116			
00:00:11	-0.333	71.116			
00:00:11	-0.675	71.116			
00:00:11	-0.888	71.116			
00:00:11	-0.805	71.116			
00:00:11	-1.531	71.116			
00:00:11	-1.374	71.116			
00:00:11	-1.569	71.116			
00:00:11	-1.889	71.116			
00:00:11	-1.726	71.116			
00:00:11	-2.348	71.116			
00:00:11	-2.313	71.116			
00:00:11	-2.289	71.116			
00:00:11	-2.640	71.116			
00:00:11	-2.213	71.116			
00:00:11	-2.603	71.116			
00:00:11	-2.357	71.116			
00:00:11	-2.110	71.116			
00:00:11	-2.423	71.116			
00:00:11	-1.979	71.116			
00:00:11	-2.214	71.116			
00:00:11	-2.154	71.116			
00:00:11	-1.854	71.116			
00:00:11	-2.305	71.116			
00:00:11	-1.823	71.116			
00:00:11	-1.666	71.116			
00:00:11	-1.420	71.116			
00:00:11	-0.953	71.116			
00:00:11	-1.287	71.116			
00:00:11	-0.861	71.116			
00:00:11	-0.757	71.116			
00:00:11	-1.028	71.116			
00:00:11	-0.599	71.116			
00:00:11	-1.032	71.116			
00:00:11	-0.634	71.116			
00:00:11	-0.624	71.116			
00:00:11	-0.973	71.116			
00:00:11	-0.547	71.116			
00:00:11	-0.922	71.116			
00:00:11	-0.986	71.116			
00:00:11	-0.816	71.116			
00:00:11	-1.305	71.116			
00:00:11	-0.953	71.116			
00:00:11	-1.310	71.116			
00:00:11	-1.354	71.116			
00:00:11	-1.196	71.116			
00:00:11	-1.701	71.116			
00:00:11	-1.269	71.116			
00:00:11	-1.219	71.116			
00:00:11	-0.922	71.116			
00:00:11	0.311	71.116			
00:00:11	1.007	71.116			
00:00:11	2.629	71.116			
00:00:11	4.142	71.116			
00:00:11	5.555	71.116			
00:00:11	7.587	71.116			
00:00:11	8.782	71.116			
00:00:11	10.557	71.116			
00:00:11	11.964	71.116			
00:00:11	12.524	71.116			
00:00:11	13.615	71.116			
00:00:11	13.591	71.116			
00:00:11	13.742	71.116			
00:00:11	13.804	71.116			
00:00:11	13.166	71.116			
00:00:11	13.317	71.116			
00:00:11	12.617	71.116			
00:00:11	12.045	71.116			
00:00:11	11.675	71.116			
00:00:11	10.323	71.116			
00:00:11	9.969	71.116			
00:00:11	9.107	71.116			
00:00:11	8.081	71.116			
00:00:11	7.619	73.143			
00:00:11	6.381	73.143			
00:00:11	5.946	73.143			
00:00:11	5.339	73.143			
00:00:11	4.414	73.148			
00:00:11	4.168	73.148			
00:00:11	2.976	73.148			
00:00:11	2.318	73.148			
00:00:11	1.665	73.148			
00:00:11	0.669	73.148			
00:00:11	0.597	73.148			
00:00:11	-0.298	73.148			
00:00:11	-0.688	73.148			
00:00:11	-0.648	73.148			
00:00:11	-1.203	73.148			
00:00:11	-0.701	73.148			
00:00:11	-0.702	73.148			
00:00:11	-0.471	73.148			
00:00:11	0.216	73.148			
00:00:11	0.056	73.148			
00:00:11	0.664	73.148			
00:00:11	0.690	73.148			
00:00:11	0.720	73.148			
00:00:11	1.382	73.148			
00:00:11	0.948	73.148			
00:00:11	1.176	73.148			
00:00:11	1.168	73.148			
00:00:11	0.824	73.148			
00:00:11	1.200	73.148			
00:00:11	0.665	73.148			
00:00:11	0.529	73.148			
00:00:11	0.606	73.148			
00:00:11	0.155	73.148			
00:00:11	0.500	73.148			
00:00:11	-0.138	73.148			
00:00:11	-0.635	73.148			
00:00:11	-0.672	73.148			
00:00:11	-1.263	73.148			
00:00:11	-1.053	73.148			
00:00:11	-1.342	73.148			
00:00:11	-1.513	73.148			
00:00:11	-1.277	73.148			
00:00:11	-1.927	73.148			
00:00:11	-1.578	73.148			
00:00:11	-1.562	73.148			
00:00:11	-1.881	73.148			
00:00:11	-1.514	73.148			
00:00:11	-1.958	73.148			
00:00:11	-1.890	73.148			
00:00:11	-1.924	73.148			
00:00:11	-2.211	73.148			
00:00:11	-1.527	73.148			
00:00:11	-1.740	73.148			
00:00:11	-1.402	73.148			
00:00:11	-1.036	73.148			
00:00:11	-1.245	73.148			
00:00:12	-0.647	73.148			
00:00:12	-0.800	73.148			
00:00:12	-0.725	73.148			
00:00:12	-0.185	73.148			
00:00:12	-0.387	73.148			
00:00:12	0.180	73.148			
00:00:12	0.002	73.148			
00:00:12	-0.143	73.148			
00:00:12	0.275	73.148			
00:00:12	-0.195	73.148			
00:00:12	0.034	73.148			
00:00:12	-0.147	73.148			
00:00:12	-0.459	73.148			
00:00:12	-0.187	73.148			
00:00:12	-0.778	73.148			
00:00:12	-0.851	73.148			
00:00:12	-0.927	73.148			
00:00:12	-1.417	73.148			
00:00:12	-0.900	73.148			
00:00:12	-1.023	73.148			
00:00:12	-0.738	73.148			
00:00:12	-0.058	73.148			
00:00:12	0.339	73.148			
00:00:12	1.791	73.148			
00:00:12	2.718	73.148			
00:00:12	4.112	73.148			
00:00:12	5.995	73.148			
00:00:12	7.107	73.148			
00:00:12	8.992	73.148			
00:00:12	10.412	73.148			
00:00:12	11.431	73.148			
00:00:12	12.768	73.148			
00:00:12	13.042	73.148			
00:00:12	13.533	73.148			
00:00:12	13.557	73.148			
00:00:12	13.034	73.148			
00:00:12	13.126	73.148			
00:00:12	12.237	73.148			
00:00:12	11.878	73.148			
00:00:12	11.494	73.148			
00:00:12	10.398	73.148			
00:00:12	10.058	73.148			
00:00:12	9.032	73.148			
00:00:12	8.177	73.148			
00:00:12	7.709	76.040			
00:00:12	6.627	76.040			
00:00:12	6.475	76.040			
00:00:12	5.642	76.040			
00:00:12	4.649	76.045			
00:00:12	4.197	76.045			
00:00:12	2.992	76.045			
00:00:12	2.578	76.045			
00:00:12	1.676	76.045			
00:00:12	0.681	76.045			
00:00:12	0.496	76.045			
00:00:12	-0.509	76.045			
00:00:12	-0.706	76.045			
00:00:12	-0.846	76.045			
00:00:12	-1.221	76.045			
00:00:12	-0.881	76.045			
00:00:12	-1.077	76.045			
00:00:12	-0.634	76.045			
00:00:12	-0.153	76.045			
00:00:12	-0.351	76.045			
00:00:12	0.443	76.045			
00:00:12	0.401	76.045			
00:00:12	0.495	76.045			
00:00:12	0.988	76.045			
00:00:12	0.536	76.045			
00:00:12	0.829	76.045			
00:00:12	0.691	76.045			
00:00:12	0.405	76.045			
00:00:12	0.646	76.045			
00:00:12	0.075	76.045			
00:00:12	0.208	76.045			
00:00:12	-0.068	76.045			
00:00:12	-0.619	76.045			
00:00:12	-0.479	76.045			
00:00:12	-1.350	76.045			
00:00:12	-1.428	76.045			
00:00:12	-1.401	76.045			
00:00:12	-1.809	76.045			
00:00:12	-1.519	76.045			
00:00:12	-2.021	76.045			
00:00:12	-2.048	76.045			
00:00:12	-1.791	76.045			
00:00:12	-2.152	76.045			
00:00:12	-1.604	76.045			
00:00:12	-1.661	76.045			
00:00:12	-1.779	76.045			
00:00:12	-1.511	76.045			
00:00:12	-2.118	76.045			
00:00:12	-1.921	76.045			
00:00:12	-2.017	76.045			
00:00:12	-2.229	76.045			
00:00:12	-1.810	76.045			
00:00:12	-2.080	76.045			
00:00:12	-1.597	76.045			
00:00:12	-1.409	76.045			
00:00:12	-1.612	76.045			
00:00:12	-1.055	76.045			
00:00:12	-1.395	76.045			
00:00:12	-1.339	76.045			
00:00:12	-1.124	76.045			
00:00:12	-1.483	76.045			
00:00:12	-0.906	76.045			
00:00:12	-1.050	76.045			
00:00:12	-0.999	76.045			
00:00:12	-0.878	76.045			
00:00:12	-1.492	76.045			
00:00:12	-1.127	76.045			
00:00:12	-1.448	76.045			
00:00:12	-1.653	76.045			
00:00:12	-1.299	76.045			
00:00:12	-1.715	76.045			
00:00:12	-1.326	76.045			
00:00:12	-1.291	76.045			
00:00:12	-1.307	76.045			
00:00:12	-0.613	76.045			
00:00:12	-0.672	76.045			
00:00:12	0.302	76.045			
00:00:12	1.388	76.045			
00:00:12	2.229	76.045			
00:00:12	4.030	76.045			
00:00:12	5.279	76.045			
00:00:12	6.995	76.045			
00:00:12	8.544	76.045			
00:00:12	9.597	76.045			
00:00:13	11.155	76.045			
00:00:13	11.729	76.045			
00:00:13	12.154	76.045			
00:00:13	12.671	76.045			
00:00:13	12.130	76.045			
00:00:13	12.225	76.045			
00:00:13	11.796	76.045			
00:00:13	11.159	76.045			
00:00:13	11.017	76.045			
00:00:13	10.048	76.045			
00:00:13	9.815	76.045			
00:00:13	9.206	76.045			
00:00:13	8.222	79.175			
00:00:13	7.948	79.175			
00:00:13	6.819	79.175			
00:00:13	6.210	79.175			
00:00:13	5.521	79.180			
00:00:13	4.336	79.180			
00:00:13	3.884	79.180			
00:00:13	2.698	79.180			
00:00:13	1.992	79.180			
00:00:13	1.423	79.180			
00:00:13	0.061	79.180			
00:00:13	-0.265	79.180			
00:00:13	-1.067	79.180			
00:00:13	-1.579	79.180			
00:00:13	-1.432	79.180			
00:00:13	-1.931	79.180			
00:00:13	-1.429	79.180			
00:00:13	-1.436	79.180			
00:00:13	-1.503	79.180			
00:00:13	-0.836	79.180			
00:00:13	-1.036	79.180			
00:00:13	-0.530	79.180			
00:00:13	-0.253	79.180			
00:00:13	-0.249	79.180			
00:00:13	0.477	79.180			
00:00:13	0.148	79.180			
00:00:13	0.237	79.180			
00:00:13	0.542	79.180			
00:00:13	0.150	79.180			
00:00:13	0.398	79.180			
00:00:13	-0.147	79.180			
00:00:13	-0.270	79.180			
00:00:13	-0.101	79.180			
00:00:13	-0.728	79.180			
00:00:13	-0.451	79.180			
00:00:13	-0.731	79.180			
00:00:13	-1.044	79.180			
00:00:13	-0.891	79.180			
00:00:13	-1.597	79.180			
00:00:13	-1.514	79.180			
00:00:13	-1.933	79.180			
00:00:13	-2.514	79.180			
00:00:13	-2.184	79.180			
00:00:13	-2.672	79.180			
00:00:13	-2.558	79.180			
00:00:13	-2.592	79.180			
00:00:13	-2.885	79.180			
00:00:13	-2.496	79.180			
00:00:13	-2.854	79.180			
00:00:13	-2.670	79.180			
00:00:13	-2.351	79.180			
00:00:13	-2.600	79.180			
00:00:13	-1.953	79.180			
00:00:13	-2.192	79.180			
00:00:13	-2.233	79.180			
00:00:13	-1.906	79.180			
00:00:13	-2.298	79.180			
00:00:13	-1.857	79.180			
00:00:13	-2.003	79.180			
00:00:13	-2.069	79.180			
00:00:13	-1.582	79.180			
00:00:13	-2.110	79.180			
00:00:13	-1.998	79.180			
00:00:13	-1.995	79.180			
00:00:13	-2.366	79.180			
00:00:13	-1.818	79.180			
00:00:13	-2.007	79.180			
00:00:13	-1.739	79.180			
00:00:13	-1.544	79.180			
00:00:13	-1.942	79.180			
00:00:13	-1.562	79.180			
00:00:13	-1.980	79.180			
00:00:13	-2.039	79.180			
00:00:13	-1.839	79.180			
00:00:13	-2.389	79.180			
00:00:13	-2.183	79.180			
00:00:13	-2.459	79.180			
00:00:13	-2.604	79.180			
00:00:13	-2.332	79.180			
00:00:13	-2.712	79.180			
00:00:13	-2.027	79.180			
00:00:13	-1.704	79.180			
00:00:13	-1.509	79.180			
00:00:13	-0.435	79.180			
00:00:13	0.303	79.180			
00:00:13	1.820	79.180			
00:00:13	3.331	79.180			
00:00:13	4.756	79.180			
00:00:13	6.873	79.180			
00:00:13	8.071	79.180			
00:00:13	9.609	79.180			
00:00:13	10.919	79.180			
00:00:13	11.462	79.180			
00:00:13	12.645	79.180			
00:00:13	12.917	79.180			
00:00:13	13.131	79.180			
00:00:13	13.291	79.180			
00:00:13	12.730	79.180			
00:00:13	12.687	79.180			
00:00:13	11.893	79.180			
00:00:13	11.207	79.180			
00:00:13	10.874	79.180			
00:00:13	9.694	79.180			
00:00:13	9.273	79.180			
00:00:13	8.556	73.846			
00:00:13	7.506	73.846			
00:00:13	7.352	73.846			
00:00:13	6.344	73.846			
00:00:13	5.785	73.851			
00:00:13	5.163	73.851			
00:00:13	4.094	73.851			
00:00:13	3.634	73.851			
00:00:13	2.436	73.851			
00:00:13	1.768	73.851			
00:00:13	1.187	73.851			
00:00:13	0.035	73.851			
00:00:14	-0.271	73.851			
00:00:14	-1.066	73.851			
00:00:14	-1.616	73.851			
00:00:14	-1.644	73.851			
00:00:14	-2.309	73.851			
00:00:14	-2.059	73.851			
00:00:14	-2.163	73.851			
00:00:14	-2.343	73.851			
00:00:14	-1.909	73.851			
00:00:14	-2.286	73.851			
00:00:14	-1.889	73.851			
00:00:14	-1.675	73.851			
00:00:14	-1.706	73.851			
00:00:14	-1.210	73.851			
00:00:14	-1.472	73.851			
00:00:14	-1.281	73.851			
00:00:14	-1.154	73.851			
00:00:14	-1.593	73.851			
00:00:14	-1.037	73.851			
00:00:14	-1.369	73.851			
00:00:14	-1.382	73.851			
00:00:14	-1.282	73.851			
00:00:14	-1.990	73.851			
00:00:14	-1.795	73.851			
00:00:14	-2.183	73.851			
00:00:14	-2.458	73.851			
00:00:14	-2.303	73.851			
00:00:14	-3.075	73.851			
00:00:14	-2.971	73.851			
00:00:14	-3.208	73.851			
00:00:14	-3.452	73.851			
00:00:14	-3.189	73.851			
00:00:14	-3.840	73.851			
00:00:14	-3.792	73.851			
00:00:14	-3.925	73.851			
00:00:14	-4.333	73.851			
00:00:14	-4.065	73.851			
00:00:14	-4.533	73.851			
00:00:14	-4.373	73.851			
00:00:14	-4.053	73.851			
00:00:14	-4.421	73.851			
00:00:14	-3.916	73.851			
00:00:14	-4.088	73.851			
00:00:14	-3.961	73.851			
00:00:14	-3.704	73.851			
00:00:14	-4.053	73.851			
00:00:14	-3.386	73.851			
00:00:14	-3.431	73.851			
00:00:14	-3.392	73.851			
00:00:14	-2.833	73.851			
00:00:14	-3.342	73.851			
00:00:14	-3.068	73.851			
00:00:14	-3.158	73.851			
00:00:14	-3.447	73.851			
00:00:14	-2.967	73.851			
00:00:14	-3.485	73.851			
00:00:14	-3.459	73.851			
00:00:14	-3.448	73.851			
00:00:14	-3.917	73.851			
00:00:14	-3.672	73.851			
00:00:14	-4.196	73.851			
00:00:14	-4.201	73.851			
00:00:14	-3.968	73.851			
00:00:14	-4.277	73.851			
00:00:14	-3.836	73.851			
00:00:14	-4.099	73.851			
00:00:14	-4.095	73.851			
00:00:14	-3.790	73.851			
00:00:14	-4.134	73.851			
00:00:14	-3.708	73.851			
00:00:14	-3.691	73.851			
00:00:14	-3.553	73.851			
00:00:14	-2.695	73.851			
00:00:14	-2.402	73.851			
00:00:14	-0.950	73.851			
00:00:14	0.600	73.851			
00:00:14	1.920	73.851			
00:00:14	3.971	73.851			
00:00:14	5.099	73.851			
00:00:14	6.619	73.851			
00:00:14	7.919	73.851			
00:00:14	8.498	73.851			
00:00:14	9.827	73.851			
00:00:14	10.213	73.851			
00:00:14	10.592	73.851			
00:00:14	10.912	73.851			
00:00:14	10.148	73.851			
00:00:14	10.132	73.851			
00:00:14	9.567	73.851			
00:00:14	8.887	73.851			
00:00:14	8.627	73.851			
00:00:14	7.548	73.851			
00:00:14	7.333	73.851			
00:00:14	6.520	73.851			
00:00:14	5.716	73.851			
00:00:14	5.698	73.851			
00:00:14	4.887	72.453			
00:00:14	4.697	72.453			
00:00:14	4.225	72.453			
00:00:14	3.377	72.453			
00:00:14	3.119	72.458			
00:00:14	1.866	72.458			
00:00:14	1.244	72.458			
00:00:14	0.830	72.458			
00:00:14	-0.207	72.458			
00:00:14	-0.367	72.458			
00:00:14	-1.128	72.458			
00:00:14	-1.613	72.458			
00:00:14	-1.785	72.458			
00:00:14	-2.646	72.458			
00:00:14	-2.393	72.458			
00:00:14	-2.584	72.458			
00:00:14	-2.622	72.458			
00:00:14	-2.216	72.458			
00:00:14	-2.509	72.458			
00:00:14	-2.030	72.458			
00:00:14	-1.994	72.458			
00:00:14	-2.225	72.458			
00:00:14	-1.754	72.458			
00:00:14	-1.993	72.458			
00:00:14	-1.626	72.458			
00:00:14	-1.389	72.458			
00:00:14	-1.804	72.458			
00:00:14	-1.416	72.458			
00:00:14	-1.876	72.458			
00:00:14	-2.022	72.458			
00:00:14	-2.086	72.458			
00:00:14	-2.698	72.458			
00:00:15	-2.381	72.458			
00:00:15	-2.840	72.458			
00:00:15	-2.994	72.458			
00:00:15	-2.691	72.458			
00:00:15	-3.144	72.458			
00:00:15	-2.916	72.458			
00:00:15	-3.304	72.458			
00:00:15	-3.624	72.458			
00:00:15	-3.468	72.458			
00:00:15	-4.149	72.458			
00:00:15	-3.907	72.458			
00:00:15	-3.923	72.458			
00:00:15	-4.154	72.458			
00:00:15	-3.691	72.458			
00:00:15	-4.036	72.458			
00:00:15	-3.979	72.458			
00:00:15	-4.067	72.458			
00:00:15	-4.646	72.458			
00:00:15	-4.401	72.458			
00:00:15	-4.830	72.458			
00:00:15	-4.642	72.458			
00:00:15	-4.237	72.458			
00:00:15	-4.605	72.458			
00:00:15	-4.055	72.458			
00:00:15	-4.176	72.458			
00:00:15	-4.127	72.458			
00:00:15	-3.722	72.458			
00:00:15	-4.013	72.458			
00:00:15	-3.670	72.458			
00:00:15	-3.884	72.458			
00:00:15	-4.056	72.458			
00:00:15	-3.709	72.458			
00:00:15	-4.052	72.458			
00:00:15	-3.665	72.458			
00:00:15	-3.672	72.458			
00:00:15	-4.127	72.458			
00:00:15	-3.713	72.458			
00:00:15	-4.096	72.458			
00:00:15	-4.033	72.458			
00:00:15	-3.867	72.458			
00:00:15	-4.231	72.458			
00:00:15	-3.932	72.458			
00:00:15	-4.323	72.458			
00:00:15	-4.450	72.458			
00:00:15	-4.343	72.458			
00:00:15	-4.954	72.458			
00:00:15	-4.525	72.458			
00:00:15	-4.758	72.458			
00:00:15	-4.836	72.458			
00:00:15	-4.310	72.458			
00:00:15	-4.563	72.458			
00:00:15	-3.742	72.458			
00:00:15	-3.014	72.458			
00:00:15	-2.424	72.458			
00:00:15	-1.100	72.458			
00:00:15	-0.349	72.458			
00:00:15	1.341	72.458			
00:00:15	3.060	72.458			
00:00:15	4.199	72.458			
00:00:15	5.939	72.458			
00:00:15	6.610	72.458			
00:00:15	7.513	72.458			
00:00:15	8.229	72.458			
00:00:15	7.884	72.458			
00:00:15	8.207	72.458			
00:00:15	7.752	72.458			
00:00:15	7.461	72.458			
00:00:15	7.444	72.458			
00:00:15	6.626	72.458			
00:00:15	6.652	72.458			
00:00:15	6.012	72.458			
00:00:15	5.271	72.458			
00:00:15	5.338	71.776			
00:00:15	4.445	71.776			
00:00:15	4.343	71.776			
00:00:15	4.030	71.776			
00:00:15	3.441	71.781			
00:00:15	3.397	71.781			
00:00:15	2.434	71.781			
00:00:15	2.092	71.781			
00:00:15	1.672	71.781			
00:00:15	0.576	71.781			
00:00:15	0.533	71.781			
00:00:15	-0.318	71.781			
00:00:15	-0.803	71.781			
00:00:15	-0.996	71.781			
00:00:15	-1.777	71.781			
00:00:15	-1.667	71.781			
00:00:15	-2.157	71.781			
00:00:15	-2.327	71.781			
00:00:15	-2.047	71.781			
00:00:15	-2.607	71.781			
00:00:15	-2.217	71.781			
00:00:15	-2.210	71.781			
00:00:15	-2.210	71.781			
00:00:15	-1.536	71.781			
00:00:15	-1.773	71.781			
00:00:15	-1.360	71.781			
00:00:15	-1.233	71.781			
00:00:15	-1.696	71.781			
00:00:15	-1.285	71.781			
00:00:15	-1.618	71.781			
00:00:15	-1.304	71.781			
00:00:15	-1.074	71.781			
00:00:15	-1.732	71.781			
00:00:15	-1.581	71.781			
00:00:15	-2.097	71.781			
00:00:15	-2.285	71.781			
00:00:15	-2.169	71.781			
00:00:15	-2.681	71.781			
00:00:15	-2.266	71.781			
00:00:15	-2.482	71.781			
00:00:15	-2.801	71.781			
00:00:15	-2.517	71.781			
00:00:15	-3.213	71.781			
00:00:15	-3.170	71.781			
00:00:15	-3.372	71.781			
00:00:15	-3.676	71.781			
00:00:15	-3.365	71.781			
00:00:15	-3.973	71.781			
00:00:15	-3.844	71.781			
00:00:15	-3.838	71.781			
00:00:15	-4.401	71.781			
00:00:15	-4.077	71.781			
00:00:15	-4.317	71.781			
00:00:15	-4.197	71.781			
00:00:15	-3.805	71.781			
00:00:15	-4.168	71.781			
00:00:16	-3.830	76.805			
00:00:16	-4.080	76.805			
00:00:16	-4.053	76.805			
00:00:16	-3.664	76.805			
00:00:16	-4.056	73.143			
00:00:16	-3.620	73.143			
00:00:16	-3.480	73.143			
00:00:16	-3.637	73.143			
00:00:16	-3.382	73.148			
00:00:16	-3.910	73.148			
00:00:16	-3.580	73.148			
00:00:16	-3.452	73.148			
00:00:16	-3.671	73.148			
00:00:16	-2.996	73.148			
00:00:16	-3.191	73.148			
00:00:16	-2.877	73.148			
00:00:16	-2.884	73.148			
00:00:16	-3.444	73.148			
00:00:16	-3.193	73.148			
00:00:16	-3.730	73.148			
00:00:16	-3.878	73.148			
00:00:16	-3.627	73.148			
00:00:16	-4.107	73.148			
00:00:16	-3.704	73.148			
00:00:16	-4.128	73.148			
00:00:16	-4.457	73.148			
00:00:16	-4.250	73.148			
00:00:16	-4.783	73.148			
00:00:16	-4.574	73.148			
00:00:16	-4.499	73.148			
00:00:16	-4.492	73.148			
00:00:16	-3.930	73.148			
00:00:16	-3.993	73.148			
00:00:16	-3.066	73.148			
00:00:16	-2.138	73.148			
00:00:16	-1.359	73.148			
00:00:16	0.504	73.148			
00:00:16	1.512	73.148			
00:00:16	2.903	73.148			
00:00:16	4.181	73.148			
00:00:16	4.709	73.148			
00:00:16	5.863	73.148			
00:00:16	6.093	73.148			
00:00:16	6.423	73.148			
00:00:16	6.852	73.148			
00:00:16	6.213	73.148			
00:00:16	6.408	73.148			
00:00:16	5.826	73.148			
00:00:16	5.215	73.148			
00:00:16	5.175	73.148			
00:00:16	4.313	73.148			
00:00:16	4.168	73.148			
00:00:16	3.688	73.148			
00:00:16	2.973	73.148			
00:00:16	3.087	73.148			
00:00:16	2.390	73.148			
00:00:16	2.167	73.148			
00:00:16	1.886	73.148			
00:00:16	1.054	73.148			
00:00:16	1.154	73.148			
00:00:16	0.539	73.148			
00:00:16	0.346	73.148			
00:00:16	0.115	73.148			
00:00:16	-0.922	73.148			
00:00:16	-1.040	73.148			
00:00:16	-1.703	73.148			
00:00:16	-2.099	73.148			
00:00:16	-1.767	73.148			
00:00:16	-2.208	73.148			
00:00:16	-1.806	73.148			
00:00:16	-1.863	73.148			
00:00:16	-2.028	73.148			
00:00:16	-1.485	73.148			
00:00:16	-1.993	73.148			
00:00:16	-1.729	73.148			
00:00:16	-1.527	73.148			
00:00:16	-1.744	73.148			
00:00:16	-1.213	73.148			
00:00:16	-1.594	73.148			
00:00:16	-1.612	73.148			
00:00:16	-1.454	73.148			
00:00:16	-1.760	73.148			
00:00:16	-1.253	73.148			
00:00:16	-1.572	73.148			
00:00:16	-1.692	73.148			
00:00:16	-1.522	73.148			
00:00:16	-2.143	73.148			
00:00:16	-2.014	73.148			
00:00:16	-2.419	73.148			
00:00:16	-2.563	73.148			
00:00:16	-2.014	73.148			
00:00:16	-2.554	73.148			
00:00:16	-2.486	73.148			
00:00:16	-2.691	73.148			
00:00:16	-2.955	73.148			
00:00:16	-2.501	73.148			
00:00:16	-2.988	73.148			
00:00:16	-2.965	73.148			
00:00:16	-3.013	73.148			
00:00:16	-3.557	73.148			
00:00:16	-3.292	73.148			
00:00:16	-3.703	73.148			
00:00:16	-3.624	73.148			
00:00:16	-3.455	73.148			
00:00:16	-4.027	73.148			
00:00:16	-3.528	73.148			
00:00:16	-3.796	73.148			
00:00:16	-3.825	73.148			
00:00:16	-3.497	73.148			
00:00:16	-3.836	73.148			
00:00:16	-3.274	73.148			
00:00:16	-3.421	73.148			
00:00:16	-3.533	73.148			
00:00:16	-3.027	73.148			
00:00:16	-3.456	73.148			
00:00:16	-3.176	73.148			
00:00:16	-3.250	73.148			
00:00:16	-3.543	73.148			
00:00:16	-2.918	73.148			
00:00:16	-3.184	73.148			
00:00:16	-3.023	73.148			
00:00:16	-2.904	73.148			
00:00:16	-3.170	73.148			
00:00:16	-2.604	73.148			
00:00:16	-2.923	73.148			
00:00:16	-2.927	73.148			
00:00:16	-2.717	73.148			
00:00:16	-3.373	73.148			
00:00:17	-3.193	73.148			
00:00:17	-3.647	73.148			
00:00:17	-3.830	73.148			
00:00:17	-3.595	73.148			
00:00:17	-4.190	73.148			
00:00:17	-3.802	73.148			
00:00:17	-3.838	73.148			
00:00:17	-4.076	73.148			
00:00:17	-3.780	73.148			
00:00:17	-4.051	73.148			
00:00:17	-3.285	73.148			
00:00:17	-2.492	73.148			
00:00:17	-2.134	73.148			
00:00:17	-0.923	73.148			
00:00:17	-0.251	73.148			
00:00:17	1.048	73.148			
00:00:17	2.459	73.148			
00:00:17	3.202	73.148			
00:00:17	4.601	73.148			
00:00:17	4.968	73.148			
00:00:17	5.485	73.148			
00:00:17	6.044	73.148			
00:00:17	5.779	73.148			
00:00:17	6.142	73.148			
00:00:17	5.723	73.148			
00:00:17	5.245	73.148			
00:00:17	5.272	73.148			
00:00:17	4.385	73.148			
00:00:17	4.336	73.148			
00:00:17	3.816	73.148			
00:00:17	3.242	73.148			
00:00:17	3.310	73.148			
00:00:17	2.443	48.917			
00:00:17	2.184	48.917			
00:00:17	2.001	48.917			
00:00:17	1.327	48.917			
00:00:17	1.469	48.922			
00:00:17	0.711	48.922			
00:00:17	0.363	48.922			
00:00:17	0.033	48.922			
00:00:17	-0.948	48.922			
00:00:17	-0.860	48.922			
00:00:17	-1.642	48.922			
00:00:17	-2.035	48.922			
00:00:17	-1.875	48.922			
00:00:17	-2.538	48.922			
00:00:17	-2.325	48.922			
00:00:17	-2.433	48.922			
00:00:17	-2.488	48.922			
00:00:17	-1.714	48.922			
00:00:17	-1.990	48.922			
00:00:17	-1.556	48.922			
00:00:17	-1.355	48.922			
00:00:17	-1.367	48.922			
00:00:17	-0.580	48.922			
00:00:17	-0.891	48.922			
00:00:17	-0.823	48.922			
00:00:17	-0.785	48.922			
00:00:17	-1.296	48.922			
00:00:17	-1.026	48.922			
00:00:17	-1.581	48.922			
00:00:17	-1.835	48.922			
00:00:17	-1.665	48.922			
00:00:17	-2.295	48.922			
00:00:17	-2.090	48.922			
00:00:17	-2.534	48.922			
00:00:17	-2.629	48.922			
00:00:17	-2.138	48.922			
00:00:17	-2.586	48.922			
00:00:17	-2.417	48.922			
00:00:17	-2.680	48.922			
00:00:17	-3.083	48.922			
00:00:17	-2.794	48.922			
00:00:17	-3.460	48.922			
00:00:17	-3.188	48.922			
00:00:17	-2.822	48.922			
00:00:17	-3.001	48.922			
00:00:17	-2.578	48.922			
00:00:17	-3.072	48.922			
00:00:17	-3.148	48.922			
00:00:17	-3.064	48.922			
00:00:17	-3.522	48.922			
00:00:17	-3.219	48.922			
00:00:17	-3.448	48.922			
00:00:17	-3.550	48.922			
00:00:17	-3.252	48.922			
00:00:17	-3.782	48.922			
00:00:17	-3.503	48.922			
00:00:17	-3.662	48.922			
00:00:17	-3.660	48.922			
00:00:17	-3.089	48.922			
00:00:17	-3.417	48.922			
00:00:17	-3.096	48.922			
00:00:17	-3.011	48.922			
00:00:17	-3.169	48.922			
00:00:17	-2.702	48.922			
00:00:17	-3.186	48.922			
00:00:17	-3.096	48.922			
00:00:17	-2.972	48.922			
00:00:17	-3.478	48.922			
00:00:17	-3.178	48.922			
00:00:17	-3.647	48.922			
00:00:17	-3.594	48.922			
00:00:17	-3.355	48.922			
00:00:17	-3.855	48.922			
00:00:17	-3.342	48.922			
00:00:17	-3.444	48.922			
00:00:17	-3.468	48.922			
00:00:17	-3.122	48.922			
00:00:17	-3.877	48.922			
00:00:17	-3.623	48.922			
00:00:17	-3.691	48.922			
00:00:17	-3.873	48.922			
00:00:17	-3.298	48.922			
00:00:17	-3.626	48.922			
00:00:17	-3.191	48.922			
00:00:17	-2.898	48.922			
00:00:17	-3.046	48.922			
00:00:17	-1.928	48.922			
00:00:17	-1.292	48.922			
00:00:17	-0.080	48.922			
00:00:17	1.111	48.922			
00:00:17	1.759	48.922			
00:00:17	3.354	48.922			
00:00:17	4.045	48.922			
00:00:17	4.730	48.922			
00:00:17	5.601	48.922			
00:00:17	5.470	48.922			
00:00:18	6.088	48.922			
00:00:18	5.813	48.922			
00:00:18	5.445	48.922			
00:00:18	5.819	48.922			
00:00:18	5.141	48.922			
00:00:18	5.301	48.922			
00:00:18	4.752	48.922			
00:00:18	3.983	48.922			
00:00:18	4.129	48.922			
00:00:18	3.464	48.922			
00:00:18	3.533	48.922			
00:00:18	3.210	48.922			
00:00:18	2.175	71.776			
00:00:18	2.293	71.776			
00:00:18	1.685	71.776			
00:00:18	1.515	71.776			
00:00:18	1.419	71.781			
00:00:18	0.517	71.781			
00:00:18	0.545	71.781			
00:00:18	-0.162	71.781			
00:00:18	-0.779	71.781			
00:00:18	-0.927	71.781			
00:00:18	-1.789	71.781			
00:00:18	-1.712	71.781			
00:00:18	-2.042	71.781			
00:00:18	-2.393	71.781			
00:00:18	-1.846	71.781			
00:00:18	-2.220	71.781			
00:00:18	-1.706	71.781			
00:00:18	-1.402	71.781			
00:00:18	-1.574	71.781			
00:00:18	-1.075	71.781			
00:00:18	-1.123	71.781			
00:00:18	-0.631	71.781			
00:00:18	-0.193	71.781			
00:00:18	-0.580	71.781			
00:00:18	-0.161	71.781			
00:00:18	-0.629	71.781			
00:00:18	-0.736	71.781			
00:00:18	-0.416	71.781			
00:00:18	-0.954	71.781			
00:00:18	-0.568	71.781			
00:00:18	-0.964	71.781			
00:00:18	-1.506	71.781			
00:00:18	-1.430	71.781			
00:00:18	-2.148	71.781			
00:00:18	-1.988	71.781			
00:00:18	-2.202	71.781			
00:00:18	-2.558	71.781			
00:00:18	-2.352	71.781			
00:00:18	-3.186	71.781			
00:00:18	-3.259	71.781			
00:00:18	-3.223	71.781			
00:00:18	-3.569	71.781			
00:00:18	-3.059	71.781			
00:00:18	-3.341	71.781			
00:00:18	-3.304	71.781			
00:00:18	-3.072	71.781			
00:00:18	-3.495	71.781			
00:00:18	-2.957	71.781			
00:00:18	-3.246	71.781			
00:00:18	-3.227	71.781			
00:00:18	-2.727	71.781			
00:00:18	-3.109	71.781			
00:00:18	-2.594	71.781			
00:00:18	-2.700	71.781			
00:00:18	-2.875	71.781			
00:00:18	-2.431	71.781			
00:00:18	-2.785	71.781			
00:00:18	-2.553	71.781			
00:00:18	-2.402	71.781			
00:00:18	-2.621	71.781			
00:00:18	-2.227	71.781			
00:00:18	-2.697	71.781			
00:00:18	-2.535	71.781			
00:00:18	-2.457	71.781			
00:00:18	-2.992	71.781			
00:00:18	-2.639	71.781			
00:00:18	-3.164	71.781			
00:00:18	-3.177	71.781			
00:00:18	-2.932	71.781			
00:00:18	-3.515	71.781			
00:00:18	-3.358	71.781			
00:00:18	-3.718	71.781			
00:00:18	-3.923	71.781			
00:00:18	-3.698	71.781			
00:00:18	-4.219	71.781			
00:00:18	-3.931	71.781			
00:00:18	-4.100	71.781			
00:00:18	-4.369	71.781			
00:00:18	-3.885	71.781			
00:00:18	-4.145	71.781			
00:00:18	-3.803	71.781			
00:00:18	-3.580	71.781			
00:00:18	-3.871	71.781			
00:00:18	-3.258	71.781			
00:00:18	-3.395	71.781			
00:00:18	-2.888	71.781			
00:00:18	-2.012	71.781			
00:00:18	-1.473	71.781			
00:00:18	-0.091	71.781			
00:00:18	0.558	71.781			
00:00:18	1.748	71.781			
00:00:18	3.422	71.781			
00:00:18	4.094	71.781			
00:00:18	5.307	71.781			
00:00:18	5.723	71.781			
00:00:18	6.121	71.781			
00:00:18	6.822	71.781			
00:00:18	6.471	71.781			
00:00:18	6.754	71.781			
00:00:18	6.501	71.781			
00:00:18	5.928	71.781			
00:00:18	5.953	71.781			
00:00:18	5.031	71.781			
00:00:18	4.838	71.781			
00:00:18	4.678	71.781			
00:00:18	4.114	71.781			
00:00:18	4.401	71.781			
00:00:18	3.727	71.781			
00:00:18	3.449	71.111			
00:00:18	3.398	71.111			
00:00:18	2.560	71.111			
00:00:18	2.630	71.111			
00:00:18	2.134	71.116			
00:00:18	1.760	71.116			
00:00:18	1.907	71.116			
00:00:18	1.046	71.116			
00:00:19	1.026	71.116			
00:00:19	0.337	71.116			
00:00:19	-0.438	71.116			
00:00:19	-0.423	71.116			
00:00:19	-1.282	71.116			
00:00:19	-1.301	71.116			
00:00:19	-1.308	71.116			
00:00:19	-1.595	71.116			
00:00:19	-1.042	71.116			
00:00:19	-1.425	71.116			
00:00:19	-1.376	71.116			
00:00:19	-1.034	71.116			
00:00:19	-1.203	71.116			
00:00:19	-0.512	71.116			
00:00:19	-0.686	71.116			
00:00:19	-0.692	71.116			
00:00:19	-0.501	71.116			
00:00:19	-0.946	71.116			
00:00:19	-0.695	71.116			
00:00:19	-1.081	71.116			
00:00:19	-1.394	71.116			
00:00:19	-1.168	71.116			
00:00:19	-1.581	71.116			
00:00:19	-1.097	71.116			
00:00:19	-1.209	71.116			
00:00:19	-1.662	71.116			
00:00:19	-1.393	71.116			
00:00:19	-1.967	71.116			
00:00:19	-1.854	71.116			
00:00:19	-1.794	71.116			
00:00:19	-2.331	71.116			
00:00:19	-2.029	71.116			
00:00:19	-2.434	71.116			
00:00:19	-2.304	71.116			
00:00:19	-2.150	71.116			
00:00:19	-2.696	71.116			
00:00:19	-2.308	71.116			
00:00:19	-2.596	71.116			
00:00:19	-2.741	71.116			
00:00:19	-2.484	71.116			
00:00:19	-2.967	71.116			
00:00:19	-2.677	71.116			
00:00:19	-2.900	71.116			
00:00:19	-3.312	71.116			
00:00:19	-3.056	71.116			
00:00:19	-3.542	71.116			
00:00:19	-3.042	71.116			
00:00:19	-2.981	71.116			
00:00:19	-3.145	71.116			
00:00:19	-2.671	71.116			
00:00:19	-3.128	71.116			
00:00:19	-2.969	71.116			
00:00:19	-2.770	71.116			
00:00:19	-3.145	71.116			
00:00:19	-2.594	71.116			
00:00:19	-2.939	71.116			
00:00:19	-2.778	71.116			
00:00:19	-2.454	71.116			
00:00:19	-2.836	71.116			
00:00:19	-2.424	71.116			
00:00:19	-2.783	71.116			
00:00:19	-2.920	71.116			
00:00:19	-2.601	71.116			
00:00:19	-3.136	71.116			
00:00:19	-2.739	71.116			
00:00:19	-2.796	71.116			
00:00:19	-3.145	71.116			
00:00:19	-3.006	71.116			
00:00:19	-3.612	71.116			
00:00:19	-3.406	71.116			
00:00:19	-3.352	71.116			
00:00:19	-3.816	71.116			
00:00:19	-3.506	71.116			
00:00:19	-3.907	71.116			
00:00:19	-3.765	71.116			
00:00:19	-3.466	71.116			
00:00:19	-3.791	71.116			
00:00:19	-3.186	71.116			
00:00:19	-3.424	71.116			
00:00:19	-3.075	71.116			
00:00:19	-2.269	71.116			
00:00:19	-2.106	71.116			
00:00:19	-0.890	71.116			
00:00:19	0.032	71.116			
00:00:19	1.126	71.116			
00:00:19	2.761	71.116			
00:00:19	3.492	71.116			
00:00:19	5.019	71.116			
00:00:19	5.929	71.116			
00:00:19	6.418	71.116			
00:00:19	7.413	71.116			
00:00:19	7.251	71.116			
00:00:19	7.441	71.116			
00:00:19	7.618	71.116			
00:00:19	6.995	71.116			
00:00:19	7.268	71.116			
00:00:19	6.733	71.116			
00:00:19	6.550	71.116			
00:00:19	6.425	71.116			
00:00:19	5.562	71.116			
00:00:19	5.527	71.116			
00:00:19	5.023	71.116			
00:00:19	4.625	71.116			
00:00:19	4.526	71.116			
00:00:19	3.657	69.189			
00:00:19	3.699	69.189			
00:00:19	3.446	69.189			
00:00:19	2.983	69.189			
00:00:19	2.836	69.194			
00:00:19	1.873	69.194			
00:00:19	1.628	69.194			
00:00:19	1.283	69.194			
00:00:19	0.550	69.194			
00:00:19	0.522	69.194			
00:00:19	-0.425	69.194			
00:00:19	-0.422	69.194			
00:00:19	-0.181	69.194			
00:00:19	-0.550	69.194			
00:00:19	-0.206	69.194			
00:00:19	-0.544	69.194			
00:00:19	-0.566	69.194			
00:00:19	-0.126	69.194			
00:00:19	-0.374	69.194			
00:00:19	0.067	69.194			
00:00:19	-0.085	69.194			
00:00:19	-0.052	69.194			
00:00:19	0.427	69.194			
00:00:19	-0.054	69.194			
00:00:20	0.269	69.194			
00:00:20	0.157	69.194			
00:00:20	-0.080	69.194			
00:00:20	0.110	69.194			
00:00:20	-0.743	69.194			
00:00:20	-0.788	69.194			
00:00:20	-0.820	69.194			
00:00:20	-1.208	69.194			
00:00:20	-0.908	69.194			
00:00:20	-1.438	69.194			
00:00:20	-1.544	69.194			
00:00:20	-1.330	69.194			
00:00:20	-1.738	69.194			
00:00:20	-1.320	69.194			
00:00:20	-1.630	69.194			
00:00:20	-1.842	69.194			
00:00:20	-1.691	69.194			
00:00:20	-2.205	69.194			
00:00:20	-1.766	69.194			
00:00:20	-1.809	69.194			
00:00:20	-2.023	69.194			
00:00:20	-1.818	69.194			
00:00:20	-2.476	69.194			
00:00:20	-2.368	69.194			
00:00:20	-2.595	69.194			
00:00:20	-3.157	69.194			
00:00:20	-2.727	69.194			
00:00:20	-3.145	69.194			
00:00:20	-2.872	69.194			
00:00:20	-2.735	69.194			
00:00:20	-2.930	69.194			
00:00:20	-2.454	69.194			
00:00:20	-2.831	69.194			
00:00:20	-2.988	69.194			
00:00:20	-2.611	69.194			
00:00:20	-2.913	69.194			
00:00:20	-2.455	69.194			
00:00:20	-2.734	69.194			
00:00:20	-2.844	69.194			
00:00:20	-2.353	69.194			
00:00:20	-2.656	69.194			
00:00:20	-2.204	69.194			
00:00:20	-2.281	69.194			
00:00:20	-2.640	69.194			
00:00:20	-2.288	69.194			
00:00:20	-2.679	69.194			
00:00:20	-2.470	69.194			
00:00:20	-2.564	69.194			
00:00:20	-3.013	69.194			
00:00:20	-2.598	69.194			
00:00:20	-2.948	69.194			
00:00:20	-2.764	69.194			
00:00:20	-2.627	69.194			
00:00:20	-3.376	69.194			
00:00:20	-3.296	69.194			
00:00:20	-3.714	69.194			
00:00:20	-3.688	69.194			
00:00:20	-3.424	69.194			
00:00:20	-3.947	69.194			
00:00:20	-3.616	69.194			
00:00:20	-3.524	69.194			
00:00:20	-3.287	69.194			
00:00:20	-2.317	69.194			
00:00:20	-2.149	69.194			
00:00:20	-1.047	69.194			
00:00:20	0.110	69.194			
00:00:20	1.242	69.194			
00:00:20	3.130	69.194			
00:00:20	4.011	69.194			
00:00:20	5.321	69.194			
00:00:20	6.321	69.194			
00:00:20	6.722	69.194			
00:00:20	7.730	69.194			
00:00:20	7.664	69.194			
00:00:20	7.820	69.194			
00:00:20	8.165	69.194			
00:00:20	7.673	69.194			
00:00:20	8.044	69.194			
00:00:20	7.595	69.194			
00:00:20	7.201	69.194			
00:00:20	7.169	69.194			
00:00:20	6.274	69.194			
00:00:20	6.251	69.194			
00:00:20	5.885	69.194			
00:00:20	5.440	69.818			
00:00:20	5.644	69.818			
00:00:20	4.944	69.818			
00:00:20	4.854	69.818			
00:00:20	4.659	69.823			
00:00:20	3.943	69.823			
00:00:20	3.873	69.823			
00:00:20	2.757	69.823			
00:00:20	2.160	69.823			
00:00:20	1.693	69.823			
00:00:20	0.854	69.823			
00:00:20	0.802	69.823			
00:00:20	0.033	69.823			
00:00:20	-0.379	69.823			
00:00:20	-0.113	69.823			
00:00:20	-0.532	69.823			
00:00:20	0.071	69.823			
00:00:20	-0.041	69.823			
00:00:20	0.011	69.823			
00:00:20	0.628	69.823			
00:00:20	0.287	69.823			
00:00:20	0.707	69.823			
00:00:20	0.654	69.823			
00:00:20	0.350	69.823			
00:00:20	0.843	69.823			
00:00:20	0.440	69.823			
00:00:20	0.720	69.823			
00:00:20	0.736	69.823			
00:00:20	0.036	69.823			
00:00:20	0.277	69.823			
00:00:20	-0.234	69.823			
00:00:20	-0.434	69.823			
00:00:20	-0.422	69.823			
00:00:20	-1.089	69.823			
00:00:20	-0.846	69.823			
00:00:20	-1.299	69.823			
00:00:20	-1.689	69.823			
00:00:20	-1.580	69.823			
00:00:20	-2.230	69.823			
00:00:20	-1.859	69.823			
00:00:20	-1.974	69.823			
00:00:20	-2.170	69.823			
00:00:20	-1.622	69.823			
00:00:20	-2.040	69.823			
00:00:21	-1.818	69.823			
00:00:21	-1.717	69.823			
00:00:21	-1.955	69.823			
00:00:21	-1.455	69.823			
00:00:21	-2.074	69.823			
00:00:21	-2.233	69.823			
00:00:21	-2.300	69.823			
00:00:21	-2.919	69.823			
00:00:21	-2.587	69.823			
00:00:21	-2.964	69.823			
00:00:21	-2.912	69.823			
00:00:21	-2.598	69.823			
00:00:21	-3.110	69.823			
00:00:21	-2.623	69.823			
00:00:21	-2.673	69.823			
00:00:21	-2.726	69.823			
00:00:21	-2.269	69.823			
00:00:21	-2.666	69.823			
00:00:21	-2.240	69.823			
00:00:21	-2.238	69.823			
00:00:21	-2.733	69.823			
00:00:21	-2.296	69.823			
00:00:21	-2.723	69.823			
00:00:21	-2.479	69.823			
00:00:21	-2.366	69.823			
00:00:21	-2.826	69.823			
00:00:21	-2.398	69.823			
00:00:21	-2.948	69.823			
00:00:21	-3.217	69.823			
00:00:21	-3.155	69.823			
00:00:21	-3.612	69.823			
00:00:21	-2.997	69.823			
00:00:21	-3.252	69.823			
00:00:21	-3.461	69.823			
00:00:21	-3.222	69.823			
00:00:21	-3.644	69.823			
00:00:21	-3.081	69.823			
00:00:21	-3.196	69.823			
00:00:21	-3.547	69.823			
00:00:21	-3.285	69.823			
00:00:21	-3.706	69.823			
00:00:21	-3.218	69.823			
00:00:21	-2.996	69.823			
00:00:21	-2.994	69.823			
00:00:21	-1.947	69.823			
00:00:21	-1.628	69.823			
00:00:21	-0.500	69.823			
00:00:21	0.916	69.823			
00:00:21	1.829	69.823			
00:00:21	3.747	69.823			
00:00:21	4.852	69.823			
00:00:21	6.148	69.823			
00:00:21	7.561	69.823			
00:00:21	7.974	69.823			
00:00:21	9.122	69.823			
00:00:21	9.268	69.823			
00:00:21	9.413	69.823			
00:00:21	10.082	69.823			
00:00:21	9.657	69.823			
00:00:21	9.945	69.823			
00:00:21	9.862	69.823			
00:00:21	9.554	69.823			
00:00:21	9.687	69.823			
00:00:21	8.734	69.823			
00:00:21	8.600	69.823			
00:00:21	8.290	69.823			
00:00:21	7.520	69.823			
00:00:21	7.522	69.823			
00:00:21	6.635	68.571			
00:00:21	6.376	68.571			
00:00:21	6.230	68.571			
00:00:21	5.351	68.571			
00:00:21	5.336	68.576			
00:00:21	4.447	68.576			
00:00:21	3.650	68.576			
00:00:21	3.299	68.576			
00:00:21	2.098	68.576			
00:00:21	1.806	68.576			
00:00:21	1.153	68.576			
00:00:21	0.497	68.576			
00:00:21	0.553	68.576			
00:00:21	-0.199	68.576			
00:00:21	-0.144	68.576			
00:00:21	-0.150	68.576			
00:00:21	-0.390	68.576			
00:00:21	0.135	68.576			
00:00:21	-0.132	68.576			
00:00:21	0.273	68.576			
00:00:21	0.516	68.576			
00:00:21	0.173	68.576			
00:00:21	0.684	68.576			
00:00:21	0.379	68.576			
00:00:21	0.530	68.576			
00:00:21	0.869	68.576			
00:00:21	0.248	68.576			
00:00:21	0.563	68.576			
00:00:21	0.263	68.576			
00:00:21	0.000	68.576			
00:00:21	0.039	68.576			
00:00:21	-0.913	68.576			
00:00:21	-0.880	68.576			
00:00:21	-1.221	68.576			
00:00:21	-1.687	68.576			
00:00:21	-1.434	68.576			
00:00:21	-2.156	68.576			
00:00:21	-2.038	68.576			
00:00:21	-2.021	68.576			
00:00:21	-2.588	68.576			
00:00:21	-2.363	68.576			
00:00:21	-2.940	68.576			
00:00:21	-2.976	68.576			
00:00:21	-2.877	68.576			
00:00:21	-3.392	68.576			
00:00:21	-2.941	68.576			
00:00:21	-3.286	68.576			
00:00:21	-3.104	68.576			
00:00:21	-2.521	68.576			
00:00:21	-2.935	68.576			
00:00:21	-2.469	68.576			
00:00:21	-2.574	68.576			
00:00:21	-2.595	68.576			
00:00:21	-2.037	68.576			
00:00:21	-2.532	68.576			
00:00:21	-2.259	68.576			
00:00:21	-2.404	68.576			
00:00:21	-2.621	68.576			
00:00:21	-2.267	68.576			
00:00:21	-2.851	68.576			
00:00:22	-2.832	68.576			
00:00:22	-2.852	68.576			
00:00:22	-3.283	68.576			
00:00:22	-2.809	68.576			
00:00:22	-3.204	68.576			
00:00:22	-3.352	68.576			
00:00:22	-3.207	68.576			
00:00:22	-3.491	68.576			
00:00:22	-2.812	68.576			
00:00:22	-2.929	68.576			
00:00:22	-3.017	68.576			
00:00:22	-2.809	68.576			
00:00:22	-3.377	68.576			
00:00:22	-3.040	68.576			
00:00:22	-3.154	68.576			
00:00:22	-3.339	68.576			
00:00:22	-2.891	68.576			
00:00:22	-3.475	68.576			
00:00:22	-3.371	68.576			
00:00:22	-3.482	68.576			
00:00:22	-3.783	68.576			
00:00:22	-3.119	68.576			
00:00:22	-3.442	68.576			
00:00:22	-3.164	68.576			
00:00:22	-2.972	68.576			
00:00:22	-3.330	68.576			
00:00:22	-2.717	68.576			
00:00:22	-2.889	68.576			
00:00:22	-2.522	68.576			
00:00:22	-1.464	68.576			
00:00:22	-0.938	68.576			
00:00:22	0.845	68.576			
00:00:22	2.153	68.576			
00:00:22	3.553	68.576			
00:00:22	5.366	68.576			
00:00:22	6.048	68.576			
00:00:22	7.418	68.576			
00:00:22	8.410	68.576			
00:00:22	8.895	68.576			
00:00:22	9.942	68.576			
00:00:22	9.946	68.576			
00:00:22	10.449	68.576			
00:00:22	10.590	68.576			
00:00:22	10.093	68.576			
00:00:22	10.479	68.576			
00:00:22	9.989	68.576			
00:00:22	9.803	68.576			
00:00:22	9.763	68.576			
00:00:22	8.849	68.576			
00:00:22	8.860	68.576			
00:00:22	8.269	68.576			
00:00:22	8.019	68.576			
00:00:22	8.001	67.965			
00:00:22	6.974	67.965			
00:00:22	6.810	67.965			
00:00:22	6.107	67.965			
00:00:22	5.307	67.970			
00:00:22	5.011	67.970			
00:00:22	3.603	67.970			
00:00:22	2.946	67.970			
00:00:22	2.038	67.970			
00:00:22	0.858	67.970			
00:00:22	0.680	67.970			
00:00:22	-0.181	67.970			
00:00:22	-0.202	67.970			
00:00:22	-0.203	67.970			
00:00:22	-0.790	67.970			
00:00:22	-0.326	67.970			
00:00:22	-0.634	67.970			
00:00:22	-0.526	67.970			
00:00:22	0.037	67.970			
00:00:22	-0.177	67.970			
00:00:22	0.329	67.970			
00:00:22	0.132	67.970			
00:00:22	-0.107	67.970			
00:00:22	0.244	67.970			
00:00:22	-0.308	67.970			
00:00:22	0.077	67.970			
00:00:22	0.035	67.970			
00:00:22	-0.296	67.970			
00:00:22	0.057	67.970			
00:00:22	-0.525	67.970			
00:00:22	-0.531	67.970			
00:00:22	-0.633	67.970			
00:00:22	-1.141	67.970			
00:00:22	-0.856	67.970			
00:00:22	-1.561	67.970			
00:00:22	-1.684	67.970			
00:00:22	-1.863	67.970			
00:00:22	-2.678	67.970			
00:00:22	-2.366	67.970			
00:00:22	-2.753	67.970			
00:00:22	-2.857	67.970			
00:00:22	-2.570	67.970			
00:00:22	-3.281	67.970			
00:00:22	-3.195	67.970			
00:00:22	-3.631	67.970			
00:00:22	-3.970	67.970			
00:00:22	-3.422	67.970			
00:00:22	-3.865	67.970			
00:00:22	-3.435	67.970			
00:00:22	-3.438	67.970			
00:00:22	-3.744	67.970			
00:00:22	-3.152	67.970			
00:00:22	-3.359	67.970			
00:00:22	-3.157	67.970			
00:00:22	-2.934	67.970			
00:00:22	-3.410	67.970			
00:00:22	-3.001	67.970			
00:00:22	-3.347	67.970			
00:00:22	-3.404	67.970			
00:00:22	-3.089	67.970			
00:00:22	-3.362	67.970			
00:00:22	-2.650	67.970			
00:00:22	-2.734	67.970			
00:00:22	-2.851	67.970			
00:00:22	-2.480	67.970			
00:00:22	-3.051	67.970			
00:00:22	-2.735	67.970			
00:00:22	-2.893	67.970			
00:00:22	-3.068	67.970			
00:00:22	-2.592	67.970			
00:00:22	-3.116	67.970			
00:00:22	-2.869	67.970			
00:00:22	-2.896	67.970			
00:00:22	-3.383	67.970			
00:00:22	-2.969	67.970			
00:00:22	-3.508	67.970			
00:00:23	-3.588	67.970			
00:00:23	-3.551	67.970			
00:00:23	-4.040	67.970			
00:00:23	-3.648	67.970			
00:00:23	-4.081	67.970			
00:00:23	-3.987	67.970			
00:00:23	-3.445	67.970			
00:00:23	-3.930	67.970			
00:00:23	-3.408	67.970			
00:00:23	-3.504	67.970			
00:00:23	-3.607	67.970			
00:00:23	-2.931	67.970			
00:00:23	-2.901	67.970			
00:00:23	-1.753	67.970			
00:00:23	-0.779	67.970			
00:00:23	0.048	67.970			
00:00:23	2.030	67.970			
00:00:23	3.113	67.970			
00:00:23	4.699	67.970			
00:00:23	6.061	67.970			
00:00:23	6.932	67.970			
00:00:23	8.586	67.970			
00:00:23	9.188	67.970			
00:00:23	10.003	67.970			
00:00:23	10.779	67.970			
00:00:23	10.616	67.970			
00:00:23	11.173	67.970			
00:00:23	10.784	67.970			
00:00:23	10.404	67.970			
00:00:23	10.407	67.970			
00:00:23	9.498	67.970			
00:00:23	9.635	67.970			
00:00:23	9.119	67.970			
00:00:23	8.438	67.970			
00:00:23	8.392	67.970			
00:00:23	7.373	67.970			
00:00:23	7.111	69.818			
00:00:23	6.563	69.818			
00:00:23	5.632	69.818			
00:00:23	5.539	69.818			
00:00:23	4.392	69.823			
00:00:23	4.051	69.823			
00:00:23	3.729	69.823			
00:00:23	2.679	69.823			
00:00:23	2.421	69.823			
00:00:23	1.314	69.823			
00:00:23	0.666	69.823			
00:00:23	0.236	69.823			
00:00:23	-0.920	69.823			
00:00:23	-0.839	69.823			
00:00:23	-1.328	69.823			
00:00:23	-1.444	69.823			
00:00:23	-1.007	69.823			
00:00:23	-1.473	69.823			
00:00:23	-1.183	69.823			
00:00:23	-1.140	69.823			
00:00:23	-1.438	69.823			
00:00:23	-0.863	69.823			
00:00:23	-1.136	69.823			
00:00:23	-0.742	69.823			
00:00:23	-0.673	69.823			
00:00:23	-1.240	69.823			
00:00:23	-0.883	69.823			
00:00:23	-1.225	69.823			
00:00:23	-1.029	69.823			
00:00:23	-0.805	69.823			
00:00:23	-1.383	69.823			
00:00:23	-1.186	69.823			
00:00:23	-1.620	69.823			
00:00:23	-1.825	69.823			
00:00:23	-1.618	69.823			
00:00:23	-2.382	69.823			
00:00:23	-2.232	69.823			
00:00:23	-2.585	69.823			
00:00:23	-3.059	69.823			
00:00:23	-2.815	69.823			
00:00:23	-3.575	69.823			
00:00:23	-3.302	69.823			
00:00:23	-3.430	69.823			
00:00:23	-4.156	69.823			
00:00:23	-3.615	69.823			
00:00:23	-4.299	69.823			
00:00:23	-4.205	69.823			
00:00:23	-3.914	69.823			
00:00:23	-4.617	69.823			
00:00:23	-3.866	69.823			
00:00:23	-4.174	69.823			
00:00:23	-4.147	69.823			
00:00:23	-3.569	69.823			
00:00:23	-4.022	69.823			
00:00:23	-3.118	69.823			
00:00:23	-3.075	69.823			
00:00:23	-3.259	69.823			
00:00:23	-2.543	69.823			
00:00:23	-3.154	69.823			
00:00:23	-2.636	69.823			
00:00:23	-2.700	69.823			
00:00:23	-3.192	69.823			
00:00:23	-2.461	69.823			
00:00:23	-2.964	69.823			
00:00:23	-2.650	69.823			
00:00:23	-2.523	69.823			
00:00:23	-3.268	69.823			
00:00:23	-2.520	69.823			
00:00:23	-3.137	69.823			
00:00:23	-3.151	69.823			
00:00:23	-2.959	69.823			
00:00:23	-3.906	69.823			
00:00:23	-3.250	69.823			
00:00:23	-3.551	69.823			
00:00:23	-3.742	69.823			
00:00:23	-3.198	69.823			
00:00:23	-3.987	69.823			
00:00:23	-3.483	69.823			
00:00:23	-3.592	69.823			
00:00:23	-3.974	69.823			
00:00:23	-3.425	69.823			
00:00:23	-4.422	69.823			
00:00:23	-4.124	69.823			
00:00:23	-3.906	69.823			
00:00:23	-4.337	69.823			
00:00:23	-3.525	69.823			
00:00:23	-4.038	69.823			
00:00:23	-3.723	69.823			
00:00:23	-2.975	69.823			
00:00:23	-2.896	69.823			
00:00:23	-1.204	69.823			
00:00:23	-0.296	69.823			
00:00:24	1.127	69.823			
00:00:24	3.139	69.823			
00:00:24	3.913	69.823			
00:00:24	5.949	69.823			
00:00:24	7.008	69.823			
00:00:24	7.858	69.823			
00:00:24	9.261	69.823			
00:00:24	9.238	69.823			
00:00:24	10.229	69.823			
00:00:24	10.735	69.823			
00:00:24	10.596	69.823			
00:00:24	11.235	69.823			
00:00:24	10.443	69.823			
00:00:24	10.558	69.823			
00:00:24	10.386	69.823			
00:00:24	9.301	69.823			
00:00:24	9.282	69.823			
00:00:24	8.037	69.823			
00:00:24	7.443	69.823			
00:00:24	7.168	69.823			
00:00:24	5.678	67.965			
00:00:24	5.737	67.965			
00:00:24	4.913	67.965			
00:00:24	4.290	67.965			
00:00:24	4.205	67.970			
00:00:24	2.787	67.970			
00:00:24	2.522	67.970			
00:00:24	1.491	67.970			
00:00:24	0.381	67.970			
00:00:24	0.489	67.970			
00:00:24	-0.667	67.970			
00:00:24	-0.665	67.970			
00:00:24	-1.114	67.970			
00:00:24	-1.889	67.970			
00:00:24	-1.375	67.970			
00:00:24	-2.035	67.970			
00:00:24	-1.713	67.970			
00:00:24	-1.293	67.970			
00:00:24	-1.818	67.970			
00:00:24	-0.979	67.970			
00:00:24	-1.342	67.970			
00:00:24	-1.226	67.970			
00:00:24	-0.604	67.970			
00:00:24	-1.172	67.970			
00:00:24	-0.510	67.970			
00:00:24	-1.011	67.970			
00:00:24	-1.284	67.970			
00:00:24	-0.796	67.970			
00:00:24	-1.429	67.970			
00:00:24	-1.052	67.970			
00:00:24	-1.234	67.970			
00:00:24	-1.844	67.970			
00:00:24	-1.513	67.970			
00:00:24	-2.310	67.970			
00:00:24	-2.069	67.970			
00:00:24	-2.194	67.970			
00:00:24	-2.966	67.970			
00:00:24	-2.550	67.970			
00:00:24	-3.181	67.970			
00:00:24	-3.229	67.970			
00:00:24	-3.118	67.970			
00:00:24	-3.886	67.970			
00:00:24	-3.142	67.970			
00:00:24	-3.637	67.970			
00:00:24	-3.785	67.970			
00:00:24	-3.161	67.970			
00:00:24	-3.994	67.970			
00:00:24	-3.403	67.970			
00:00:24	-3.708	67.970			
00:00:24	-4.116	67.970			
00:00:24	-3.523	67.970			
00:00:24	-4.178	67.970			
00:00:24	-3.591	67.970			
00:00:24	-3.448	67.970			
00:00:24	-4.093	67.970			
00:00:24	-3.434	67.970			
00:00:24	-4.211	67.970			
00:00:24	-3.959	67.970			
00:00:24	-3.534	67.970			
00:00:24	-4.033	67.970			
00:00:24	-3.103	67.970			
00:00:24	-3.508	67.970			
00:00:24	-3.387	67.970			
00:00:24	-2.805	67.970			
00:00:24	-3.606	67.970			
00:00:24	-2.995	67.970			
00:00:24	-3.237	67.970			
00:00:24	-3.503	67.970			
00:00:24	-2.970	67.970			
00:00:24	-3.680	67.970			
00:00:24	-3.075	67.970			
00:00:24	-3.199	67.970			
00:00:24	-3.785	67.970			
00:00:24	-3.202	67.970			
00:00:24	-4.116	67.970			
00:00:24	-3.917	67.970			
00:00:24	-3.706	67.970			
00:00:24	-4.239	67.970			
00:00:24	-3.528	67.970			
00:00:24	-4.086	67.970			
00:00:24	-4.045	67.970			
00:00:24	-3.746	67.970			
00:00:24	-4.473	67.970			
00:00:24	-3.887	67.970			
00:00:24	-4.144	67.970			
00:00:24	-3.814	67.970			
00:00:24	-2.442	67.970			
00:00:24	-2.030	67.970			
00:00:24	-0.067	67.970			
00:00:24	1.242	67.970			
00:00:24	2.617	67.970			
00:00:24	4.984	67.970			
00:00:24	5.913	67.970			
00:00:24	7.644	67.970			
00:00:24	8.793	67.970			
00:00:24	9.344	67.970			
00:00:24	10.924	67.970			
00:00:24	10.838	67.970			
00:00:24	11.401	67.970			
00:00:24	11.736	67.970			
00:00:24	11.203	67.970			
00:00:24	11.738	67.970			
00:00:24	10.785	67.970			
00:00:24	10.383	67.970			
00:00:24	10.401	67.970			
00:00:24	9.240	67.970			
00:00:24	9.237	67.970			
00:00:24	8.229	67.970			
00:00:25	7.316	71.111			
00:00:25	7.152	71.111			
00:00:25	5.631	71.111			
00:00:25	5.460	71.111			
00:00:25	4.693	71.116			
00:00:25	3.801	71.116			
00:00:25	3.880	71.116			
00:00:25	2.710	71.116			
00:00:25	2.602	71.116			
00:00:25	2.117	71.116			
00:00:25	0.931	71.116			
00:00:25	1.007	71.116			
00:00:25	-0.096	71.116			
00:00:25	-0.380	71.116			
00:00:25	-0.498	71.116			
00:00:25	-1.538	71.116			
00:00:25	-1.078	71.116			
00:00:25	-1.648	71.116			
00:00:25	-1.540	71.116			
00:00:25	-0.861	71.116			
00:00:25	-1.445	71.116			
00:00:25	-0.730	71.116			
00:00:25	-0.859	71.116			
00:00:25	-1.059	71.116			
00:00:25	-0.342	71.116			
00:00:25	-1.209	71.116			
00:00:25	-0.966	71.116			
00:00:25	-1.221	71.116			
00:00:25	-1.527	71.116			
00:00:25	-0.806	71.116			
00:00:25	-1.591	71.116			
00:00:25	-1.557	71.116			
00:00:25	-1.498	71.116			
00:00:25	-2.239	71.116			
00:00:25	-1.781	71.116			
00:00:25	-2.534	71.116			
00:00:25	-2.615	71.116			
00:00:25	-2.363	71.116			
00:00:25	-3.177	71.116			
00:00:25	-2.665	71.116			
00:00:25	-3.120	71.116			
00:00:25	-3.323	71.116			
00:00:25	-2.831	71.116			
00:00:25	-3.749	71.116			
00:00:25	-3.320	71.116			
00:00:25	-3.502	71.116			
00:00:25	-3.701	71.116			
00:00:25	-2.985	71.116			
00:00:25	-3.607	71.116			
00:00:25	-3.357	71.116			
00:00:25	-3.440	71.116			
00:00:25	-4.030	71.116			
00:00:25	-3.367	71.116			
00:00:25	-3.989	71.116			
00:00:25	-3.724	71.116			
00:00:25	-3.362	71.116			
00:00:25	-3.864	71.116			
00:00:25	-3.105	71.116			
00:00:25	-3.544	71.116			
00:00:25	-3.501	71.116			
00:00:25	-3.051	71.116			
00:00:25	-3.701	71.116			
00:00:25	-3.111	71.116			
00:00:25	-3.223	71.116			
00:00:25	-3.196	71.116			
00:00:25	-2.451	71.116			
00:00:25	-3.271	71.116			
00:00:25	-2.907	71.116			
00:00:25	-2.923	71.116			
00:00:25	-3.236	71.116			
00:00:25	-2.522	71.116			
00:00:25	-3.113	71.116			
00:00:25	-2.774	71.116			
00:00:25	-2.624	71.116			
00:00:25	-3.296	71.116			
00:00:25	-2.836	71.116			
00:00:25	-3.483	71.116			
00:00:25	-3.399	71.116			
00:00:25	-3.161	71.116			
00:00:25	-3.781	71.116			
00:00:25	-3.437	71.116			
00:00:25	-4.004	71.116			
00:00:25	-4.114	71.116			
00:00:25	-3.768	71.116			
00:00:25	-4.383	71.116			
00:00:25	-3.873	71.116			
00:00:25	-3.782	71.116			
00:00:25	-3.402	71.116			
00:00:25	-2.238	71.116			
00:00:25	-1.850	71.116			
00:00:25	-0.296	71.116			
00:00:25	1.169	71.116			
00:00:25	2.536	71.116			
00:00:25	4.787	71.116			
00:00:25	6.080	71.116			
00:00:25	7.882	71.116			
00:00:25	9.408	71.116			
00:00:25	10.118	71.116			
00:00:25	11.549	71.116			
00:00:25	11.783	71.116			
00:00:25	12.282	71.116			
00:00:25	12.801	71.116			
00:00:25	12.365	71.116			
00:00:25	12.654	71.116			
00:00:25	12.057	71.116			
00:00:25	11.406	71.116			
00:00:25	11.020	71.116			
00:00:25	9.723	71.116			
00:00:25	9.370	71.116			
00:00:25	8.480	71.116			
00:00:25	7.500	71.116			
00:00:25	7.390	71.116			
00:00:25	6.376	69.818			
00:00:25	5.985	69.818			
00:00:25	5.198	69.818			
00:00:25	4.044	69.818			
00:00:25	3.842	69.823			
00:00:25	2.487	69.823			
00:00:25	1.702	69.823			
00:00:25	1.242	69.823			
00:00:25	0.111	69.823			
00:00:25	0.009	69.823			
00:00:25	-0.916	69.823			
00:00:25	-1.274	69.823			
00:00:25	-0.980	69.823			
00:00:25	-1.484	69.823			
00:00:25	-1.138	69.823			
00:00:25	-1.365	69.823			
00:00:26	-1.372	69.823			
00:00:26	-0.705	69.823			
00:00:26	-1.216	69.823			
00:00:26	-0.789	69.823			
00:00:26	-0.756	69.823			
00:00:26	-0.936	69.823			
00:00:26	-0.386	69.823			
00:00:26	-0.809	69.823			
00:00:26	-0.597	69.823			
00:00:26	-0.514	69.823			
00:00:26	-1.052	69.823			
00:00:26	-0.661	69.823			
00:00:26	-1.252	69.823			
00:00:26	-1.366	69.823			
00:00:26	-1.422	69.823			
00:00:26	-2.213	69.823			
00:00:26	-2.025	69.823			
00:00:26	-2.556	69.823			
00:00:26	-2.909	69.823			
00:00:26	-2.750	69.823			
00:00:26	-3.385	69.823			
00:00:26	-3.040	69.823			
00:00:26	-3.341	69.823			
00:00:26	-3.659	69.823			
00:00:26	-3.180	69.823			
00:00:26	-3.585	69.823			
00:00:26	-3.271	69.823			
00:00:26	-3.479	69.823			
00:00:26	-3.853	69.823			
00:00:26	-3.411	69.823			
00:00:26	-3.960	69.823			
00:00:26	-3.885	69.823			
00:00:26	-3.562	69.823			
00:00:26	-3.849	69.823			
00:00:26	-3.335	69.823			
00:00:26	-3.721	69.823			
00:00:26	-3.718	69.823			
00:00:26	-3.414	69.823			
00:00:26	-3.828	69.823			
00:00:26	-3.245	69.823			
00:00:26	-3.190	69.823			
00:00:26	-3.201	69.823			
00:00:26	-2.828	69.823			
00:00:26	-3.410	69.823			
00:00:26	-3.111	69.823			
00:00:26	-3.220	69.823			
00:00:26	-3.507	69.823			
00:00:26	-3.080	69.823			
00:00:26	-3.692	69.823			
00:00:26	-3.502	69.823			
00:00:26	-3.266	69.823			
00:00:26	-3.442	69.823			
00:00:26	-2.621	69.823			
00:00:26	-2.762	69.823			
00:00:26	-2.647	69.823			
00:00:26	-2.575	69.823			
00:00:26	-3.154	69.823			
00:00:26	-2.747	69.823			
00:00:26	-3.105	69.823			
00:00:26	-3.205	69.823			
00:00:26	-2.791	69.823			
00:00:26	-3.203	69.823			
00:00:26	-2.840	69.823			
00:00:26	-3.199	69.823			
00:00:26	-3.461	69.823			
00:00:26	-3.077	69.823			
00:00:26	-3.574	69.823			
00:00:26	-3.327	69.823			
00:00:26	-3.341	69.823			
00:00:26	-3.568	69.823			
00:00:26	-2.631	69.823			
00:00:26	-2.551	69.823			
00:00:26	-1.476	69.823			
00:00:26	-0.191	69.823			
00:00:26	0.851	69.823			
00:00:26	3.016	69.823			
00:00:26	4.491	69.823			
00:00:26	6.279	69.823			
00:00:26	8.143	69.823			
00:00:26	9.265	69.823			
00:00:26	11.017	69.823			
00:00:26	11.520	69.823			
00:00:26	11.876	69.823			
00:00:26	12.489	69.823			
00:00:26	12.053	69.823			
00:00:26	12.281	69.823			
00:00:26	11.928	69.823			
00:00:26	11.342	69.823			
00:00:26	11.187	69.823			
00:00:26	10.144	69.823			
00:00:26	9.829	69.823			
00:00:26	9.151	69.823			
00:00:26	8.099	69.823			
00:00:26	7.957	69.823			
00:00:26	6.998	69.823			
00:00:26	6.598	69.823			
00:00:26	6.099	68.571			
00:00:26	4.966	68.571			
00:00:26	4.749	68.571			
00:00:26	3.544	68.571			
00:00:26	2.501	68.576			
00:00:26	1.855	68.576			
00:00:26	0.559	68.576			
00:00:26	0.248	68.576			
00:00:26	-0.499	68.576			
00:00:26	-1.158	68.576			
00:00:26	-1.066	68.576			
00:00:26	-1.788	68.576			
00:00:26	-1.584	68.576			
00:00:26	-1.604	68.576			
00:00:26	-1.767	68.576			
00:00:26	-0.924	68.576			
00:00:26	-1.083	68.576			
00:00:26	-0.687	68.576			
00:00:26	-0.460	68.576			
00:00:26	-0.782	68.576			
00:00:26	-0.266	68.576			
00:00:26	-0.561	68.576			
00:00:26	-0.304	68.576			
00:00:26	0.020	68.576			
00:00:26	-0.460	68.576			
00:00:26	-0.191	68.576			
00:00:26	-0.789	68.576			
00:00:26	-1.116	68.576			
00:00:26	-0.991	68.576			
00:00:26	-1.687	68.576			
00:00:26	-1.456	68.576			
00:00:26	-1.851	68.576			
00:00:27	-2.224	68.576			
00:00:27	-2.013	68.576			
00:00:27	-2.726	68.576			
00:00:27	-2.572	68.576			
00:00:27	-2.693	68.576			
00:00:27	-3.195	68.576			
00:00:27	-2.928	68.576			
00:00:27	-3.316	68.576			
00:00:27	-3.067	68.576			
00:00:27	-2.944	68.576			
00:00:27	-3.565	68.576			
00:00:27	-3.338	68.576			
00:00:27	-3.815	68.576			
00:00:27	-3.738	68.576			
00:00:27	-3.281	68.576			
00:00:27	-3.764	68.576			
00:00:27	-3.469	68.576			
00:00:27	-3.551	68.576			
00:00:27	-3.512	68.576			
00:00:27	-2.907	68.576			
00:00:27	-3.292	68.576			
00:00:27	-2.956	68.576			
00:00:27	-3.006	68.576			
00:00:27	-3.139	68.576			
00:00:27	-2.658	68.576			
00:00:27	-3.141	68.576			
00:00:27	-2.829	68.576			
00:00:27	-2.687	68.576			
00:00:27	-3.098	68.576			
00:00:27	-2.596	68.576			
00:00:27	-2.865	68.576			
00:00:27	-2.719	68.576			
00:00:27	-2.418	68.576			
00:00:27	-2.871	68.576			
00:00:27	-2.448	68.576			
00:00:27	-2.821	68.576			
00:00:27	-2.901	68.576			
00:00:27	-2.567	68.576			
00:00:27	-3.057	68.576			
00:00:27	-2.718	68.576			
00:00:27	-2.896	68.576			
00:00:27	-3.105	68.576			
00:00:27	-2.774	68.576			
00:00:27	-3.271	68.576			
00:00:27	-2.920	68.576			
00:00:27	-3.090	68.576			
00:00:27	-3.527	68.576			
00:00:27	-3.078	68.576			
00:00:27	-3.420	68.576			
00:00:27	-3.090	68.576			
00:00:27	-2.809	68.576			
00:00:27	-2.957	68.576			
00:00:27	-2.067	68.576			
00:00:27	-1.647	68.576			
00:00:27	-0.605	68.576			
00:00:27	0.951	68.576			
00:00:27	1.959	68.576			
00:00:27	4.186	68.576			
00:00:27	5.657	68.576			
00:00:27	6.956	68.576			
00:00:27	8.725	68.576			
00:00:27	9.403	68.576			
00:00:27	10.604	68.576			
00:00:27	11.220	68.576			
00:00:27	11.509	68.576			
00:00:27	12.176	68.576			
00:00:27	11.713	68.576			
00:00:27	11.824	68.576			
00:00:27	11.708	68.576			
00:00:27	10.771	68.576			
00:00:27	10.609	68.576			
00:00:27	9.474	68.576			
00:00:27	8.863	68.576			
00:00:27	8.371	68.576			
00:00:27	7.290	68.576			
00:00:27	7.145	68.576			
00:00:27	6.213	71.111			
00:00:27	5.495	71.111			
00:00:27	5.030	71.111			
00:00:27	3.685	71.111			
00:00:27	3.168	71.116			
00:00:27	2.196	71.116			
00:00:27	1.056	71.116			
00:00:27	0.700	71.116			
00:00:27	-0.426	71.116			
00:00:27	-0.743	71.116			
00:00:27	-1.240	71.116			
00:00:27	-1.744	71.116			
00:00:27	-1.393	71.116			
00:00:27	-2.118	71.116			
00:00:27	-2.218	71.116			
00:00:27	-2.021	71.116			
00:00:27	-2.282	71.116			
00:00:27	-1.541	71.116			
00:00:27	-1.555	71.116			
00:00:27	-1.137	71.116			
00:00:27	-0.686	71.116			
00:00:27	-1.038	71.116			
00:00:27	-0.428	71.116			
00:00:27	-0.491	71.116			
00:00:27	-0.328	71.116			
00:00:27	0.074	71.116			
00:00:27	-0.487	71.116			
00:00:27	-0.245	71.116			
00:00:27	-0.559	71.116			
00:00:27	-1.024	71.116			
00:00:27	-0.767	71.116			
00:00:27	-1.522	71.116			
00:00:27	-1.613	71.116			
00:00:27	-1.965	71.116			
00:00:27	-2.610	71.116			
00:00:27	-2.329	71.116			
00:00:27	-2.841	71.116			
00:00:27	-2.831	71.116			
00:00:27	-2.806	71.116			
00:00:27	-3.487	71.116			
00:00:27	-3.201	71.116			
00:00:27	-3.684	71.116			
00:00:27	-3.894	71.116			
00:00:27	-3.634	71.116			
00:00:27	-4.198	71.116			
00:00:27	-3.799	71.116			
00:00:27	-3.893	71.116			
00:00:27	-4.011	71.116			
00:00:27	-3.494	71.116			
00:00:27	-3.900	71.116			
00:00:27	-3.422	71.116			
00:00:27	-3.163	71.116			
00:00:28	-3.369	71.116			
00:00:28	-2.788	71.116			
00:00:28	-3.153	71.116			
00:00:28	-2.925	71.116			
00:00:28	-2.846	71.116			
00:00:28	-3.306	71.116			
00:00:28	-2.845	71.116			
00:00:28	-3.125	71.116			
00:00:28	-2.834	71.116			
00:00:28	-2.545	71.116			
00:00:28	-2.981	71.116			
00:00:28	-2.513	71.116			
00:00:28	-2.832	71.116			
00:00:28	-2.810	71.116			
00:00:28	-2.345	71.116			
00:00:28	-2.813	71.116			
00:00:28	-2.579	71.116			
00:00:28	-2.682	71.116			
00:00:28	-2.853	71.116			
00:00:28	-2.444	71.116			
00:00:28	-3.079	71.116			
00:00:28	-3.012	71.116			
00:00:28	-3.217	71.116			
00:00:28	-3.780	71.116			
00:00:28	-3.418	71.116			
00:00:28	-3.932	71.116			
00:00:28	-3.815	71.116			
00:00:28	-3.511	71.116			
00:00:28	-3.877	71.116			
00:00:28	-3.279	71.116			
00:00:28	-3.492	71.116			
00:00:28	-3.322	71.116			
00:00:28	-2.756	71.116			
00:00:28	-2.774	71.116			
00:00:28	-1.587	71.116			
00:00:28	-0.853	71.116			
00:00:28	0.168	71.116			
00:00:28	1.945	71.116			
00:00:28	2.974	71.116			
00:00:28	4.754	71.116			
00:00:28	6.260	71.116			
00:00:28	7.535	71.116			
00:00:28	9.387	71.116			
00:00:28	10.232	71.116			
00:00:28	11.444	71.116			
00:00:28	12.341	71.116			
00:00:28	12.399	71.116			
00:00:28	13.109	71.116			
00:00:28	12.584	71.116			
00:00:28	12.393	71.116			
00:00:28	12.188	71.116			
00:00:28	11.305	71.116			
00:00:28	11.259	71.116			
00:00:28	10.443	71.116			
00:00:28	9.637	71.116			
00:00:28	9.340	71.116			
00:00:28	8.319	69.818			
00:00:28	8.124	69.818			
00:00:28	7.446	69.818			
00:00:28	6.559	69.818			
00:00:28	6.247	69.823			
00:00:28	5.046	69.823			
00:00:28	4.633	69.823			
00:00:28	3.815	69.823			
00:00:28	2.712	69.823			
00:00:28	2.416	69.823			
00:00:28	1.395	69.823			
00:00:28	0.847	69.823			
00:00:28	0.110	69.823			
00:00:28	-1.059	69.823			
00:00:28	-1.154	69.823			
00:00:28	-1.898	69.823			
00:00:28	-2.171	69.823			
00:00:28	-1.791	69.823			
00:00:28	-2.146	69.823			
00:00:28	-1.348	69.823			
00:00:28	-1.256	69.823			
00:00:28	-1.333	69.823			
00:00:28	-0.950	69.823			
00:00:28	-1.412	69.823			
00:00:28	-1.050	69.823			
00:00:28	-0.974	69.823			
00:00:28	-1.142	69.823			
00:00:28	-0.611	69.823			
00:00:28	-0.991	69.823			
00:00:28	-0.858	69.823			
00:00:28	-0.885	69.823			
00:00:28	-1.323	69.823			
00:00:28	-0.982	69.823			
00:00:28	-1.503	69.823			
00:00:28	-1.655	69.823			
00:00:28	-1.673	69.823			
00:00:28	-2.272	69.823			
00:00:28	-1.991	69.823			
00:00:28	-2.386	69.823			
00:00:28	-2.586	69.823			
00:00:28	-2.556	69.823			
00:00:28	-3.385	69.823			
00:00:28	-3.230	69.823			
00:00:28	-3.455	69.823			
00:00:28	-3.713	69.823			
00:00:28	-3.418	69.823			
00:00:28	-3.823	69.823			
00:00:28	-3.548	69.823			
00:00:28	-3.579	69.823			
00:00:28	-3.706	69.823			
00:00:28	-3.096	69.823			
00:00:28	-3.568	69.823			
00:00:28	-3.580	69.823			
00:00:28	-3.534	69.823			
00:00:28	-3.900	69.823			
00:00:28	-3.332	69.823			
00:00:28	-3.609	69.823			
00:00:28	-3.536	69.823			
00:00:28	-3.014	69.823			
00:00:28	-3.207	69.823			
00:00:28	-2.564	69.823			
00:00:28	-2.677	69.823			
00:00:28	-2.781	69.823			
00:00:28	-2.407	69.823			
00:00:28	-2.995	69.823			
00:00:28	-2.808	69.823			
00:00:28	-2.805	69.823			
00:00:28	-2.852	69.823			
00:00:28	-2.195	69.823			
00:00:28	-2.694	69.823			
00:00:28	-2.558	69.823			
00:00:28	-2.635	69.823			
00:00:29	-3.017	69.823			
00:00:29	-2.528	69.823			
00:00:29	-2.928	69.823			
00:00:29	-2.944	69.823			
00:00:29	-2.925	69.823			
00:00:29	-3.621	69.823			
00:00:29	-3.334	69.823			
00:00:29	-3.568	69.823			
00:00:29	-3.620	69.823			
00:00:29	-3.327	69.823			
00:00:29	-3.873	69.823			
00:00:29	-3.604	69.823			
00:00:29	-3.938	69.823			
00:00:29	-4.023	69.823			
00:00:29	-3.282	69.823			
00:00:29	-3.617	69.823			
00:00:29	-3.141	69.823			
00:00:29	-2.828	69.823			
00:00:29	-2.624	69.823			
00:00:29	-1.268	69.823			
00:00:29	-0.629	69.823			
00:00:29	0.974	69.823			
00:00:29	2.591	69.823			
00:00:29	3.807	69.823			
00:00:29	6.110	69.823			
00:00:29	7.513	69.823			
00:00:29	9.024	69.823			
00:00:29	10.592	69.823			
00:00:29	11.146	69.823			
00:00:29	12.192	69.823			
00:00:29	12.490	69.823			
00:00:29	12.706	69.823			
00:00:29	13.209	69.823			
00:00:29	12.619	69.823			
00:00:29	12.691	69.823			
00:00:29	12.130	69.823			
00:00:29	11.348	69.823			
00:00:29	11.103	69.823			
00:00:29	9.949	69.823			
00:00:29	9.556	69.823			
00:00:29	8.853	67.965			
00:00:29	7.539	67.965			
00:00:29	7.197	67.965			
00:00:29	6.292	67.965			
00:00:29	5.975	67.970			
00:00:29	5.700	67.970			
00:00:29	4.652	67.970			
00:00:29	4.276	67.970			
00:00:29	3.074	67.970			
00:00:29	2.196	67.970			
00:00:29	1.692	67.970			
00:00:29	0.385	67.970			
00:00:29	0.020	67.970			
00:00:29	-0.739	67.970			
00:00:29	-1.377	67.970			
00:00:29	-1.322	67.970			
00:00:29	-2.010	67.970			
00:00:29	-1.751	67.970			
00:00:29	-1.954	67.970			
00:00:29	-2.105	67.970			
00:00:29	-1.469	67.970			
00:00:29	-1.742	67.970			
00:00:29	-1.405	67.970			
00:00:29	-1.044	67.970			
00:00:29	-1.221	67.970			
00:00:29	-0.808	67.970			
00:00:29	-1.174	67.970			
00:00:29	-1.199	67.970			
00:00:29	-0.931	67.970			
00:00:29	-1.329	67.970			
00:00:29	-0.839	67.970			
00:00:29	-1.187	67.970			
00:00:29	-1.303	67.970			
00:00:29	-1.049	67.970			
00:00:29	-1.683	67.970			
00:00:29	-1.662	67.970			
00:00:29	-2.056	67.970			
00:00:29	-2.398	67.970			
00:00:29	-2.064	67.970			
00:00:29	-2.664	67.970			
00:00:29	-2.708	67.970			
00:00:29	-2.892	67.970			
00:00:29	-3.321	67.970			
00:00:29	-3.043	67.970			
00:00:29	-3.484	67.970			
00:00:29	-3.360	67.970			
00:00:29	-3.196	67.970			
00:00:29	-3.875	67.970			
00:00:29	-3.576	67.970			
00:00:29	-3.818	67.970			
00:00:29	-3.899	67.970			
00:00:29	-3.648	67.970			
00:00:29	-4.142	67.970			
00:00:29	-3.785	67.970			
00:00:29	-3.817	67.970			
00:00:29	-3.789	67.970			
00:00:29	-3.243	67.970			
00:00:29	-3.638	67.970			
00:00:29	-3.389	67.970			
00:00:29	-3.336	67.970			
00:00:29	-3.684	67.970			
00:00:29	-3.180	67.970			
00:00:29	-3.548	67.970			
00:00:29	-3.322	67.970			
00:00:29	-3.198	67.970			
00:00:29	-3.423	67.970			
00:00:29	-2.686	67.970			
00:00:29	-2.916	67.970			
00:00:29	-2.755	67.970			
00:00:29	-2.342	67.970			
00:00:29	-2.846	67.970			
00:00:29	-2.499	67.970			
00:00:29	-2.890	67.970			
00:00:29	-2.944	67.970			
00:00:29	-2.610	67.970			
00:00:29	-3.136	67.970			
00:00:29	-2.812	67.970			
00:00:29	-3.020	67.970			
00:00:29	-3.322	67.970			
00:00:29	-3.012	67.970			
00:00:29	-3.609	67.970			
00:00:29	-3.533	67.970			
00:00:29	-3.472	67.970			
00:00:29	-3.941	67.970			
00:00:29	-3.675	67.970			
00:00:29	-4.180	67.970			
00:00:29	-4.032	67.970			
00:00:29	-3.842	67.970			
00:00:30	-4.171	67.970			
00:00:30	-3.386	67.970			
00:00:30	-3.352	67.970			
00:00:30	-2.834	67.970			
00:00:30	-1.966	67.970			
00:00:30	-1.555	67.970			
00:00:30	0.109	67.970			
00:00:30	1.464	67.970			
00:00:30	3.106	67.970			
00:00:30	5.454	67.970			
00:00:30	6.682	67.970			
00:00:30	8.803	67.970			
00:00:30	10.209	67.970			
00:00:30	11.221	67.970			
00:00:30	12.638	67.970			
00:00:30	12.841	67.970			
00:00:30	13.457	67.970			
00:00:30	13.676	67.970			
00:00:30	13.022	67.970			
00:00:30	13.081	67.970			
00:00:30	12.267	67.970			
00:00:30	11.904	67.970			
00:00:30	11.686	67.970			
00:00:30	10.607	67.970			
00:00:30	10.016	67.970			
00:00:30	8.737	67.970			
00:00:30	7.788	67.970			
00:00:30	7.413	67.970			
00:00:30	6.193	67.965			
00:00:30	5.933	67.965			
00:00:30	5.179	67.965			
00:00:30	4.220	67.965			
00:00:30	4.044	67.970			
00:00:30	3.043	67.970			
00:00:30	2.764	67.970			
00:00:30	1.997	67.970			
00:00:30	0.831	67.970			
00:00:30	0.379	67.970			
00:00:30	-0.857	67.970			
00:00:30	-1.173	67.970			
00:00:30	-1.307	67.970			
00:00:30	-1.874	67.970			
00:00:30	-1.611	67.970			
00:00:30	-2.053	67.970			
00:00:30	-2.115	67.970			
00:00:30	-1.735	67.970			
00:00:30	-2.154	67.970			
00:00:30	-1.602	67.970			
00:00:30	-1.579	67.970			
00:00:30	-1.265	67.970			
00:00:30	-0.505	67.970			
00:00:30	-0.854	67.970			
00:00:30	-0.563	67.970			
00:00:30	-0.631	67.970			
00:00:30	-0.872	67.970			
00:00:30	-0.578	67.970			
00:00:30	-1.306	67.970			
00:00:30	-1.216	67.970			
00:00:30	-1.191	67.970			
00:00:30	-1.750	67.970			
00:00:30	-1.432	67.970			
00:00:30	-1.914	67.970			
00:00:30	-1.946	67.970			
00:00:30	-1.856	67.970			
00:00:30	-2.692	67.970			
00:00:30	-2.512	67.970			
00:00:30	-2.921	67.970			
00:00:30	-3.135	67.970			
00:00:30	-3.015	67.970			
00:00:30	-3.575	67.970			
00:00:30	-3.210	67.970			
00:00:30	-3.390	67.970			
00:00:30	-3.587	67.970			
00:00:30	-3.209	67.970			
00:00:30	-3.706	67.970			
00:00:30	-3.574	67.970			
00:00:30	-3.422	67.970			
00:00:30	-3.736	67.970			
00:00:30	-3.372	67.970			
00:00:30	-3.752	67.970			
00:00:30	-3.417	67.970			
00:00:30	-3.265	67.970			
00:00:30	-3.642	67.970			
00:00:30	-3.116	67.970			
00:00:30	-3.468	67.970			
00:00:30	-3.397	67.970			
00:00:30	-3.176	67.970			
00:00:30	-3.570	67.970			
00:00:30	-3.155	67.970			
00:00:30	-3.345	67.970			
00:00:30	-3.409	67.970			
00:00:30	-2.968	67.970			
00:00:30	-3.314	67.970			
00:00:30	-2.862	67.970			
00:00:30	-2.735	67.970			
00:00:30	-2.735	67.970			
00:00:30	-2.202	67.970			
00:00:30	-2.685	67.970			
00:00:30	-2.401	67.970			
00:00:30	-2.379	67.970			
00:00:30	-2.824	67.970			
00:00:30	-2.617	67.970			
00:00:30	-3.098	67.970			
00:00:30	-3.138	67.970			
00:00:30	-2.964	67.970			
00:00:30	-3.428	67.970			
00:00:30	-3.141	67.970			
00:00:30	-3.611	67.970			
00:00:30	-3.702	67.970			
00:00:30	-3.454	67.970			
00:00:30	-4.019	67.970			
00:00:30	-3.690	67.970			
00:00:30	-3.741	67.970			
00:00:30	-3.860	67.970			
00:00:30	-3.341	67.970			
00:00:30	-3.726	67.970			
00:00:30	-3.113	67.970			
00:00:30	-2.551	67.970			
00:00:30	-2.233	67.970			
00:00:30	-0.928	67.970			
00:00:30	-0.243	67.970			
00:00:30	1.214	67.970			
00:00:30	2.879	67.970			
00:00:30	4.143	67.970			
00:00:30	6.263	67.970			
00:00:30	7.702	67.970			
00:00:30	9.308	67.970			
00:00:30	10.754	67.970			
00:00:31	11.164	67.970			
00:00:31	12.234	67.970			
00:00:31	12.367	67.970			
00:00:31	12.452	67.970			
00:00:31	12.688	67.970			
00:00:31	12.049	67.970			
00:00:31	12.122	67.970			
00:00:31	11.634	67.970			
00:00:31	10.697	67.970			
00:00:31	10.401	67.970			
00:00:31	9.160	67.970			
00:00:31	8.577	67.970			
00:00:31	7.866	66.783			
00:00:31	6.786	66.783			
00:00:31	6.608	66.783			
00:00:31	5.504	66.783			
00:00:31	4.857	66.788			
00:00:31	4.289	66.788			
00:00:31	3.201	66.788			
00:00:31	2.825	66.788			
00:00:31	1.722	66.788			
00:00:31	1.050	66.788			
00:00:31	0.674	66.788			
00:00:31	-0.178	66.788			
00:00:31	-0.037	66.788			
00:00:31	-0.416	66.788			
00:00:31	-1.002	66.788			
00:00:31	-0.865	66.788			
00:00:31	-1.544	66.788			
00:00:31	-1.381	66.788			
00:00:31	-1.447	66.788			
00:00:31	-1.748	66.788			
00:00:31	-1.184	66.788			
00:00:31	-1.510	66.788			
00:00:31	-1.339	66.788			
00:00:31	-1.225	66.788			
00:00:31	-1.295	66.788			
00:00:31	-0.677	66.788			
00:00:31	-1.093	66.788			
00:00:31	-1.157	66.788			
00:00:31	-1.049	66.788			
00:00:31	-1.645	66.788			
00:00:31	-1.426	66.788			
00:00:31	-1.623	66.788			
00:00:31	-1.812	66.788			
00:00:31	-1.534	66.788			
00:00:31	-2.025	66.788			
00:00:31	-1.701	66.788			
00:00:31	-1.899	66.788			
00:00:31	-2.224	66.788			
00:00:31	-1.882	66.788			
00:00:31	-2.542	66.788			
00:00:31	-2.439	66.788			
00:00:31	-2.572	66.788			
00:00:31	-3.050	66.788			
00:00:31	-2.742	66.788			
00:00:31	-3.340	66.788			
00:00:31	-3.432	66.788			
00:00:31	-3.351	66.788			
00:00:31	-3.825	66.788			
00:00:31	-3.349	66.788			
00:00:31	-3.816	66.788			
00:00:31	-4.049	66.788			
00:00:31	-3.879	66.788			
00:00:31	-4.199	66.788			
00:00:31	-3.598	66.788			
00:00:31	-3.572	66.788			
00:00:31	-3.454	66.788			
00:00:31	-2.756	66.788			
00:00:31	-3.228	66.788			
00:00:31	-2.964	66.788			
00:00:31	-2.924	66.788			
00:00:31	-3.173	66.788			
00:00:31	-2.717	66.788			
00:00:31	-3.127	66.788			
00:00:31	-2.799	66.788			
00:00:31	-2.518	66.788			
00:00:31	-2.746	66.788			
00:00:31	-2.308	66.788			
00:00:31	-2.597	66.788			
00:00:31	-2.430	66.788			
00:00:31	-2.108	66.788			
00:00:31	-2.591	66.788			
00:00:31	-2.158	66.788			
00:00:31	-2.395	66.788			
00:00:31	-2.624	66.788			
00:00:31	-2.361	66.788			
00:00:31	-3.208	66.788			
00:00:31	-3.106	66.788			
00:00:31	-3.260	66.788			
00:00:31	-3.514	66.788			
00:00:31	-3.146	66.788			
00:00:31	-3.739	66.788			
00:00:31	-3.564	66.788			
00:00:31	-3.526	66.788			
00:00:31	-3.844	66.788			
00:00:31	-3.370	66.788			
00:00:31	-3.877	66.788			
00:00:31	-3.798	66.788			
00:00:31	-3.381	66.788			
00:00:31	-3.517	66.788			
00:00:31	-2.537	66.788			
00:00:31	-2.170	66.788			
00:00:31	-1.153	66.788			
00:00:31	0.404	66.788			
00:00:31	1.393	66.788			
00:00:31	3.488	66.788			
00:00:31	5.050	66.788			
00:00:31	6.695	66.788			
00:00:31	8.888	66.788			
00:00:31	9.877	66.788			
00:00:31	11.333	66.788			
00:00:31	12.126	66.788			
00:00:31	12.248	66.788			
00:00:31	12.821	66.788			
00:00:31	12.402	66.788			
00:00:31	12.574	66.788			
00:00:31	12.260	66.788			
00:00:31	11.419	66.788			
00:00:31	11.198	66.788			
00:00:31	10.111	66.788			
00:00:31	9.495	66.788			
00:00:31	9.211	66.788			
00:00:31	7.990	66.788			
00:00:31	7.646	69.818			
00:00:31	6.772	69.818			
00:00:31	5.923	69.818			
00:00:31	5.593	69.818			
00:00:32	4.403	75.299			
00:00:32	3.936	75.299			
00:00:32	2.940	75.299			
00:00:32	1.856	75.299			
00:00:32	1.356	75.299			
00:00:32	0.045	75.299			
00:00:32	-0.321	75.299			
00:00:32	-0.744	75.299			
00:00:32	-1.448	75.299			
00:00:32	-1.434	75.299			
00:00:32	-2.032	75.299			
00:00:32	-1.820	75.299			
00:00:32	-1.528	75.299			
00:00:32	-1.907	75.299			
00:00:32	-1.311	75.299			
00:00:32	-1.533	75.299			
00:00:32	-1.511	75.299			
00:00:32	-1.222	75.299			
00:00:32	-1.627	75.299			
00:00:32	-1.155	75.299			
00:00:32	-1.165	75.299			
00:00:32	-1.120	75.299			
00:00:32	-0.685	75.299			
00:00:32	-1.183	75.299			
00:00:32	-0.839	75.299			
00:00:32	-0.934	75.299			
00:00:32	-1.189	75.299			
00:00:32	-0.878	75.299			
00:00:32	-1.389	75.299			
00:00:32	-1.280	75.299			
00:00:32	-1.369	75.299			
00:00:32	-1.920	75.299			
00:00:32	-1.671	75.299			
00:00:32	-2.126	75.299			
00:00:32	-2.226	75.299			
00:00:32	-2.159	75.299			
00:00:32	-2.855	75.299			
00:00:32	-2.582	75.299			
00:00:32	-3.039	75.299			
00:00:32	-3.449	75.299			
00:00:32	-3.246	75.299			
00:00:32	-3.828	75.299			
00:00:32	-3.559	75.299			
00:00:32	-3.679	75.299			
00:00:32	-3.783	75.299			
00:00:32	-3.388	75.299			
00:00:32	-3.892	75.299			
00:00:32	-3.675	75.299			
00:00:32	-3.783	75.299			
00:00:32	-4.164	75.299			
00:00:32	-3.586	75.299			
00:00:32	-3.937	75.299			
00:00:32	-3.588	75.299			
00:00:32	-3.186	75.299			
00:00:32	-3.505	75.299			
00:00:32	-2.990	75.299			
00:00:32	-3.246	75.299			
00:00:32	-3.213	75.299			
00:00:32	-2.906	75.299			
00:00:32	-3.202	75.299			
00:00:32	-2.647	75.299			
00:00:32	-2.719	75.299			
00:00:32	-2.678	75.299			
00:00:32	-2.242	75.299			
00:00:32	-2.523	75.299			
00:00:32	-2.149	75.299			
00:00:32	-2.376	75.299			
00:00:32	-2.636	75.299			
00:00:32	-2.321	75.299			
00:00:32	-2.975	75.299			
00:00:32	-2.733	75.299			
00:00:32	-2.637	75.299			
00:00:32	-3.206	75.299			
00:00:32	-2.884	75.299			
00:00:32	-3.337	75.299			
00:00:32	-3.303	75.299			
00:00:32	-3.228	75.299			
00:00:32	-3.742	75.299			
00:00:32	-3.324	75.299			
00:00:32	-3.504	75.299			
00:00:32	-3.757	75.299			
00:00:32	-3.519	75.299			
00:00:32	-3.931	75.299			
00:00:32	-3.488	75.299			
00:00:32	-3.432	75.299			
00:00:32	-3.013	75.299			
00:00:32	-1.628	75.299			
00:00:32	-0.892	75.299			
00:00:32	0.915	75.299			
00:00:32	2.644	75.299			
00:00:32	4.184	75.299			
00:00:32	6.492	75.299			
00:00:32	7.983	75.299			
00:00:32	9.823	75.299			
00:00:32	11.420	75.299			
00:00:32	12.067	75.299			
00:00:32	13.397	75.299			
00:00:32	13.606	75.299			
00:00:32	13.843	75.299			
00:00:32	14.149	75.299			
00:00:32	13.541	75.299			
00:00:32	13.435	75.299			
00:00:32	12.676	75.299			
00:00:32	11.814	75.299			
00:00:32	11.524	75.299			
00:00:32	10.254	75.299			
00:00:32	9.962	75.299			
00:00:32	9.255	75.299			
00:00:32	8.035	40.635			
00:00:32	7.626	40.635			
00:00:32	6.445	40.635			
00:00:32	5.934	40.635			
00:00:32	5.291	40.640			
00:00:32	4.234	40.640			
00:00:32	3.953	40.640			
00:00:32	2.876	40.640			
00:00:32	2.309	40.640			
00:00:32	2.019	40.640			
00:00:32	0.857	40.640			
00:00:32	0.583	40.640			
00:00:32	-0.563	40.640			
00:00:32	-1.159	40.640			
00:00:32	-1.196	40.640			
00:00:32	-1.956	40.640			
00:00:32	-1.709	40.640			
00:00:32	-1.892	40.640			
00:00:32	-1.976	40.640			
00:00:32	-1.419	40.640			
00:00:33	-1.613	40.640			
00:00:33	-1.048	40.640			
00:00:33	-0.969	40.640			
00:00:33	-1.127	40.640			
00:00:33	-0.526	40.640			
00:00:33	-0.855	40.640			
00:00:33	-0.570	40.640			
00:00:33	-0.414	40.640			
00:00:33	-0.851	40.640			
00:00:33	-0.524	40.640			
00:00:33	-0.972	40.640			
00:00:33	-1.068	40.640			
00:00:33	-1.075	40.640			
00:00:33	-1.669	40.640			
00:00:33	-1.430	40.640			
00:00:33	-2.034	40.640			
00:00:33	-2.378	40.640			
00:00:33	-2.198	40.640			
00:00:33	-2.739	40.640			
00:00:33	-2.547	40.640			
00:00:33	-2.864	40.640			
00:00:33	-3.238	40.640			
00:00:33	-2.885	40.640			
00:00:33	-3.421	40.640			
00:00:33	-3.404	40.640			
00:00:33	-3.625	40.640			
00:00:33	-3.979	40.640			
00:00:33	-3.483	40.640			
00:00:33	-3.849	40.640			
00:00:33	-3.743	40.640			
00:00:33	-3.671	40.640			
00:00:33	-4.064	40.640			
00:00:33	-3.336	40.640			
00:00:33	-3.544	40.640			
00:00:33	-3.634	40.640			
00:00:33	-3.396	40.640			
00:00:33	-3.786	40.640			
00:00:33	-3.348	40.640			
00:00:33	-3.638	40.640			
00:00:33	-3.685	40.640			
00:00:33	-3.100	40.640			
00:00:33	-3.390	40.640			
00:00:33	-3.066	40.640			
00:00:33	-3.059	40.640			
00:00:33	-3.309	40.640			
00:00:33	-2.595	40.640			
00:00:33	-2.844	40.640			
00:00:33	-2.517	40.640			
00:00:33	-2.426	40.640			
00:00:33	-2.695	40.640			
00:00:33	-2.025	40.640			
00:00:33	-2.169	40.640			
00:00:33	-2.118	40.640			
00:00:33	-1.910	40.640			
00:00:33	-2.404	40.640			
00:00:33	-1.973	40.640			
00:00:33	-2.425	40.640			
00:00:33	-2.720	40.640			
00:00:33	-2.619	40.640			
00:00:33	-3.374	40.640			
00:00:33	-3.086	40.640			
00:00:33	-3.336	40.640			
00:00:33	-3.807	40.640			
00:00:33	-3.414	40.640			
00:00:33	-4.021	40.640			
00:00:33	-3.806	40.640			
00:00:33	-3.635	40.640			
00:00:33	-3.884	40.640			
00:00:33	-3.201	40.640			
00:00:33	-2.817	40.640			
00:00:33	-1.924	40.640			
00:00:33	-0.651	40.640			
00:00:33	0.365	40.640			
00:00:33	2.430	40.640			
00:00:33	3.928	40.640			
00:00:33	5.790	40.640			
00:00:33	7.880	40.640			
00:00:33	9.154	40.640			
00:00:33	10.918	40.640			
00:00:33	11.928	40.640			
00:00:33	12.722	40.640			
00:00:33	13.804	40.640			
00:00:33	13.750	40.640			
00:00:33	14.146	40.640			
00:00:33	13.876	40.640			
00:00:33	13.137	40.640			
00:00:33	13.003	40.640			
00:00:33	11.856	40.640			
00:00:33	11.293	40.640			
00:00:33	10.581	40.640			
00:00:33	9.487	40.640			
00:00:33	9.219	40.640			
00:00:33	8.151	68.571			
00:00:33	7.401	68.571			
00:00:33	6.980	68.571			
00:00:33	5.973	68.571			
00:00:33	5.684	68.576			
00:00:33	4.591	68.576			
00:00:33	3.729	68.576			
00:00:33	3.210	68.576			
00:00:33	1.883	68.576			
00:00:33	1.421	68.576			
00:00:33	0.630	68.576			
00:00:33	-0.175	68.576			
00:00:33	-0.465	68.576			
00:00:33	-1.463	68.576			
00:00:33	-1.233	68.576			
00:00:33	-1.372	68.576			
00:00:33	-1.897	68.576			
00:00:33	-1.551	68.576			
00:00:33	-1.895	68.576			
00:00:33	-1.683	68.576			
00:00:33	-1.423	68.576			
00:00:33	-1.738	68.576			
00:00:33	-0.988	68.576			
00:00:33	-1.222	68.576			
00:00:33	-1.128	68.576			
00:00:33	-0.753	68.576			
00:00:33	-1.056	68.576			
00:00:33	-0.559	68.576			
00:00:33	-0.827	68.576			
00:00:33	-1.126	68.576			
00:00:33	-0.839	68.576			
00:00:33	-1.385	68.576			
00:00:33	-1.313	68.576			
00:00:33	-1.488	68.576			
00:00:33	-1.959	68.576			
00:00:33	-1.637	68.576			
00:00:34	-2.343	68.576			
00:00:34	-2.468	68.576			
00:00:34	-2.367	68.576			
00:00:34	-2.792	68.576			
00:00:34	-2.682	68.576			
00:00:34	-3.245	68.576			
00:00:34	-3.312	68.576			
00:00:34	-3.265	68.576			
00:00:34	-3.820	68.576			
00:00:34	-3.551	68.576			
00:00:34	-3.834	68.576			
00:00:34	-3.921	68.576			
00:00:34	-3.650	68.576			
00:00:34	-4.140	68.576			
00:00:34	-3.697	68.576			
00:00:34	-3.631	68.576			
00:00:34	-3.771	68.576			
00:00:34	-3.482	68.576			
00:00:34	-4.085	68.576			
00:00:34	-3.768	68.576			
00:00:34	-3.610	68.576			
00:00:34	-3.822	68.576			
00:00:34	-3.331	68.576			
00:00:34	-3.760	68.576			
00:00:34	-3.538	68.576			
00:00:34	-3.066	68.576			
00:00:34	-3.355	68.576			
00:00:34	-2.796	68.576			
00:00:34	-3.037	68.576			
00:00:34	-3.024	68.576			
00:00:34	-2.558	68.576			
00:00:34	-2.866	68.576			
00:00:34	-2.486	68.576			
00:00:34	-2.522	68.576			
00:00:34	-2.566	68.576			
00:00:34	-2.076	68.576			
00:00:34	-2.762	68.576			
00:00:34	-2.635	68.576			
00:00:34	-2.778	68.576			
00:00:34	-2.913	68.576			
00:00:34	-2.621	68.576			
00:00:34	-3.012	68.576			
00:00:34	-2.791	68.576			
00:00:34	-2.871	68.576			
00:00:34	-3.617	68.576			
00:00:34	-3.379	68.576			
00:00:34	-3.894	68.576			
00:00:34	-3.841	68.576			
00:00:34	-3.660	68.576			
00:00:34	-3.900	68.576			
00:00:34	-3.191	68.576			
00:00:34	-3.330	68.576			
00:00:34	-3.277	68.576			
00:00:34	-2.491	68.576			
00:00:34	-2.195	68.576			
00:00:34	-0.772	68.576			
00:00:34	0.373	68.576			
00:00:34	1.766	68.576			
00:00:34	3.791	68.576			
00:00:34	5.195	68.576			
00:00:34	7.150	68.576			
00:00:34	8.875	68.576			
00:00:34	10.157	68.576			
00:00:34	11.917	68.576			
00:00:34	12.382	68.576			
00:00:34	13.014	68.576			
00:00:34	13.449	68.576			
00:00:34	13.188	68.576			
00:00:34	13.533	68.576			
00:00:34	13.005	68.576			
00:00:34	12.422	68.576			
00:00:34	12.049	68.576			
00:00:34	10.812	68.576			
00:00:34	10.451	68.576			
00:00:34	9.452	68.576			
00:00:34	8.384	68.576			
00:00:34	7.839	68.571			
00:00:34	6.642	68.571			
00:00:34	6.236	68.571			
00:00:34	5.396	68.571			
00:00:34	4.275	68.576			
00:00:34	3.873	68.576			
00:00:34	2.669	68.576			
00:00:34	2.169	68.576			
00:00:34	1.389	68.576			
00:00:34	0.238	68.576			
00:00:34	0.073	68.576			
00:00:34	-0.835	68.576			
00:00:34	-1.268	68.576			
00:00:34	-1.446	68.576			
00:00:34	-2.131	68.576			
00:00:34	-1.763	68.576			
00:00:34	-2.190	68.576			
00:00:34	-2.178	68.576			
00:00:34	-1.651	68.576			
00:00:34	-1.873	68.576			
00:00:34	-1.256	68.576			
00:00:34	-1.076	68.576			
00:00:34	-1.099	68.576			
00:00:34	-0.568	68.576			
00:00:34	-0.999	68.576			
00:00:34	-0.688	68.576			
00:00:34	-0.691	68.576			
00:00:34	-1.085	68.576			
00:00:34	-0.829	68.576			
00:00:34	-1.230	68.576			
00:00:34	-1.293	68.576			
00:00:34	-1.174	68.576			
00:00:34	-1.631	68.576			
00:00:34	-1.273	68.576			
00:00:34	-1.667	68.576			
00:00:34	-1.820	68.576			
00:00:34	-1.815	68.576			
00:00:34	-2.477	68.576			
00:00:34	-2.259	68.576			
00:00:34	-2.614	68.576			
00:00:34	-2.870	68.576			
00:00:34	-2.443	68.576			
00:00:34	-3.040	68.576			
00:00:34	-2.850	68.576			
00:00:34	-2.927	68.576			
00:00:34	-3.232	68.576			
