RAW Data export file (tab separated)


Client:	,kozawa
Session:	kozawa rest
Date:	06-07-2020
Time:	10:22:20
Duration:	133	Seconds.
Output rate:	128	Samples/sec.

hh:mm:ss	128 SPS	32 SPS	
TIME	Sensor-G:BVP	HR (BVP)	Events	Segments	


00:00:00	16.614	70.000			
00:00:00	17.516	70.000			
00:00:00	17.766	70.000			
00:00:00	18.124	70.000			
00:00:00	17.915	70.000			
00:00:00	17.378	70.000			
00:00:00	16.888	70.000			
00:00:00	15.776	70.000			
00:00:00	14.926	70.000			
00:00:00	13.979	70.000			
00:00:00	12.730	70.000			
00:00:00	11.935	70.000			
00:00:00	10.948	70.000			
00:00:00	10.167	70.000			
00:00:00	9.378	70.000			
00:00:00	8.303	70.000			
00:00:00	7.541	70.000			
00:00:00	6.485	70.000			
00:00:00	5.647	70.000			
00:00:00	4.874	70.000			
00:00:00	3.760	70.000			
00:00:00	2.984	70.000			
00:00:00	1.999	70.000			
00:00:00	1.090	70.000			
00:00:00	0.555	70.000			
00:00:00	-0.309	70.000			
00:00:00	-0.720	70.000			
00:00:00	-1.167	70.000			
00:00:00	-1.631	70.000			
00:00:00	-1.533	70.000			
00:00:00	-1.562	70.000			
00:00:00	-1.397	70.000			
00:00:00	-1.137	70.000			
00:00:00	-0.988	70.000			
00:00:00	-0.536	70.000			
00:00:00	-0.470	70.000			
00:00:00	-0.299	70.000			
00:00:00	-0.029	70.000			
00:00:00	-0.129	70.000			
00:00:00	0.093	70.000			
00:00:00	-0.065	70.000			
00:00:00	-0.138	70.000			
00:00:00	-0.111	70.000			
00:00:00	-0.502	70.000			
00:00:00	-0.527	70.000			
00:00:00	-0.972	70.000			
00:00:00	-1.367	70.000			
00:00:00	-1.372	70.000			
00:00:00	-1.704	70.000			
00:00:00	-1.876	70.000			
00:00:00	-2.097	70.000			
00:00:00	-2.255	70.000			
00:00:00	-2.321	70.000			
00:00:00	-2.678	70.000			
00:00:00	-2.637	70.000			
00:00:00	-2.572	70.000			
00:00:00	-2.492	70.000			
00:00:00	-2.435	70.000			
00:00:00	-2.608	70.000			
00:00:00	-2.630	70.000			
00:00:00	-2.561	70.000			
00:00:00	-2.623	70.000			
00:00:00	-2.381	70.000			
00:00:00	-2.498	70.000			
00:00:00	-2.531	70.000			
00:00:00	-2.429	70.000			
00:00:00	-2.644	70.000			
00:00:00	-2.492	70.000			
00:00:00	-2.526	70.000			
00:00:00	-2.608	70.000			
00:00:00	-2.366	70.000			
00:00:00	-2.189	70.000			
00:00:00	-1.799	70.000			
00:00:00	-1.555	70.000			
00:00:00	-1.458	70.000			
00:00:00	-1.319	70.000			
00:00:00	-1.512	70.000			
00:00:00	-1.350	70.000			
00:00:00	-1.327	70.000			
00:00:00	-1.402	70.000			
00:00:00	-1.318	70.000			
00:00:00	-1.431	70.000			
00:00:00	-1.237	70.000			
00:00:00	-1.149	70.000			
00:00:00	-1.455	70.000			
00:00:00	-1.492	70.000			
00:00:00	-1.803	70.000			
00:00:00	-1.940	70.000			
00:00:00	-1.875	70.000			
00:00:00	-2.014	70.000			
00:00:00	-1.822	70.000			
00:00:00	-1.633	70.000			
00:00:00	-1.034	70.000			
00:00:00	0.351	70.000			
00:00:00	1.608	70.000			
00:00:00	3.346	70.000			
00:00:00	5.268	70.000			
00:00:00	7.271	70.000			
00:00:00	9.610	70.000			
00:00:00	11.547	70.000			
00:00:00	13.385	70.000			
00:00:00	15.056	70.000			
00:00:00	16.120	70.000			
00:00:00	17.058	70.000			
00:00:00	17.469	70.000			
00:00:00	17.863	70.000			
00:00:00	17.904	70.000			
00:00:00	17.321	70.000			
00:00:00	16.926	70.000			
00:00:00	16.225	70.000			
00:00:00	15.346	70.000			
00:00:00	14.426	70.000			
00:00:00	13.189	70.000			
00:00:00	12.314	70.000			
00:00:00	11.414	70.000			
00:00:00	10.385	70.000			
00:00:00	9.772	70.000			
00:00:00	8.774	70.000			
00:00:00	8.089	70.000			
00:00:00	7.220	70.000			
00:00:00	6.115	70.000			
00:00:00	5.207	70.000			
00:00:00	3.963	70.000			
00:00:00	2.943	70.000			
00:00:00	2.004	70.000			
00:00:00	0.989	70.000			
00:00:00	0.287	70.000			
00:00:00	-0.564	70.000			
00:00:01	-1.109	70.000			
00:00:01	-1.328	70.000			
00:00:01	-1.715	70.000			
00:00:01	-1.514	70.000			
00:00:01	-1.561	70.000			
00:00:01	-1.561	70.000			
00:00:01	-1.225	70.000			
00:00:01	-0.963	70.000			
00:00:01	-0.429	70.000			
00:00:01	-0.241	70.000			
00:00:01	-0.156	70.000			
00:00:01	0.222	70.000			
00:00:01	0.100	70.000			
00:00:01	0.186	70.000			
00:00:01	0.186	70.000			
00:00:01	0.034	70.000			
00:00:01	0.168	70.000			
00:00:01	-0.199	70.000			
00:00:01	-0.470	70.000			
00:00:01	-0.783	70.000			
00:00:01	-1.095	70.000			
00:00:01	-1.158	70.000			
00:00:01	-1.457	70.000			
00:00:01	-1.700	70.000			
00:00:01	-1.813	70.000			
00:00:01	-2.133	70.000			
00:00:01	-2.025	70.000			
00:00:01	-2.203	70.000			
00:00:01	-2.238	70.000			
00:00:01	-2.179	70.000			
00:00:01	-2.463	70.000			
00:00:01	-2.438	70.000			
00:00:01	-2.492	70.000			
00:00:01	-2.585	70.000			
00:00:01	-2.401	70.000			
00:00:01	-2.635	70.000			
00:00:01	-2.649	70.000			
00:00:01	-2.613	70.000			
00:00:01	-2.672	70.000			
00:00:01	-2.426	70.000			
00:00:01	-2.476	70.000			
00:00:01	-2.402	70.000			
00:00:01	-2.264	70.000			
00:00:01	-2.476	70.000			
00:00:01	-2.424	70.000			
00:00:01	-2.532	70.000			
00:00:01	-2.476	70.000			
00:00:01	-2.207	70.000			
00:00:01	-2.251	70.000			
00:00:01	-1.903	70.000			
00:00:01	-1.800	70.000			
00:00:01	-1.685	70.000			
00:00:01	-1.389	70.000			
00:00:01	-1.408	70.000			
00:00:01	-1.066	70.000			
00:00:01	-1.133	70.000			
00:00:01	-1.329	70.000			
00:00:01	-1.110	70.000			
00:00:01	-1.174	70.000			
00:00:01	-0.983	70.000			
00:00:01	-1.079	70.000			
00:00:01	-1.547	70.000			
00:00:01	-1.524	70.000			
00:00:01	-1.727	70.000			
00:00:01	-1.808	70.000			
00:00:01	-1.836	70.000			
00:00:01	-2.060	70.000			
00:00:01	-1.779	70.000			
00:00:01	-1.791	70.000			
00:00:01	-1.315	70.000			
00:00:01	-0.129	70.000			
00:00:01	1.233	70.000			
00:00:01	3.162	70.000			
00:00:01	4.978	70.000			
00:00:01	7.006	70.000			
00:00:01	9.330	70.000			
00:00:01	11.327	70.000			
00:00:01	13.497	70.000			
00:00:01	15.037	70.000			
00:00:01	16.076	70.000			
00:00:01	17.043	70.000			
00:00:01	17.408	70.000			
00:00:01	17.778	70.000			
00:00:01	17.712	70.000			
00:00:01	17.014	70.000			
00:00:01	16.599	70.000			
00:00:01	15.695	70.000			
00:00:01	14.923	70.000			
00:00:01	14.227	70.000			
00:00:01	13.295	70.000			
00:00:01	12.491	70.000			
00:00:01	11.451	70.000			
00:00:01	10.404	35.392			
00:00:01	9.543	35.392			
00:00:01	8.361	35.392			
00:00:01	7.590	35.392			
00:00:01	6.630	35.397			
00:00:01	5.473	35.397			
00:00:01	4.546	35.397			
00:00:01	3.387	35.397			
00:00:01	2.384	35.397			
00:00:01	1.315	35.397			
00:00:01	0.355	35.397			
00:00:01	-0.227	35.397			
00:00:01	-0.974	35.397			
00:00:01	-1.254	35.397			
00:00:01	-1.406	35.397			
00:00:01	-1.711	35.397			
00:00:01	-1.523	35.397			
00:00:01	-1.563	35.397			
00:00:01	-1.324	35.397			
00:00:01	-0.895	35.397			
00:00:01	-0.586	35.397			
00:00:01	-0.029	35.397			
00:00:01	0.119	35.397			
00:00:01	0.407	35.397			
00:00:01	0.696	35.397			
00:00:01	0.596	35.397			
00:00:01	0.678	35.397			
00:00:01	0.532	35.397			
00:00:01	0.386	35.397			
00:00:01	0.347	35.397			
00:00:01	0.005	35.397			
00:00:01	-0.132	35.397			
00:00:01	-0.460	35.397			
00:00:01	-0.946	35.397			
00:00:01	-1.054	35.397			
00:00:01	-1.482	35.397			
00:00:02	-1.650	35.397			
00:00:02	-1.972	35.397			
00:00:02	-2.332	35.397			
00:00:02	-2.184	35.397			
00:00:02	-2.311	35.397			
00:00:02	-2.299	35.397			
00:00:02	-2.339	35.397			
00:00:02	-2.682	35.397			
00:00:02	-2.635	35.397			
00:00:02	-2.779	35.397			
00:00:02	-2.851	35.397			
00:00:02	-2.744	35.397			
00:00:02	-3.072	35.397			
00:00:02	-2.916	35.397			
00:00:02	-2.934	35.397			
00:00:02	-2.809	35.397			
00:00:02	-2.444	35.397			
00:00:02	-2.487	35.397			
00:00:02	-2.355	35.397			
00:00:02	-2.309	35.397			
00:00:02	-2.284	35.397			
00:00:02	-1.810	35.397			
00:00:02	-1.845	35.397			
00:00:02	-1.604	35.397			
00:00:02	-1.422	35.397			
00:00:02	-1.427	35.397			
00:00:02	-1.156	35.397			
00:00:02	-1.223	35.397			
00:00:02	-1.177	35.397			
00:00:02	-1.109	35.397			
00:00:02	-1.160	35.397			
00:00:02	-0.894	35.397			
00:00:02	-0.867	35.397			
00:00:02	-0.881	35.397			
00:00:02	-1.003	35.397			
00:00:02	-1.322	35.397			
00:00:02	-1.528	35.397			
00:00:02	-1.756	35.397			
00:00:02	-2.054	35.397			
00:00:02	-1.997	35.397			
00:00:02	-2.333	35.397			
00:00:02	-2.289	35.397			
00:00:02	-2.247	35.397			
00:00:02	-2.210	35.397			
00:00:02	-1.956	35.397			
00:00:02	-2.096	35.397			
00:00:02	-1.639	35.397			
00:00:02	-0.814	35.397			
00:00:02	0.108	35.397			
00:00:02	1.697	35.397			
00:00:02	3.232	35.397			
00:00:02	5.160	35.397			
00:00:02	7.471	35.397			
00:00:02	9.535	35.397			
00:00:02	11.614	35.397			
00:00:02	13.246	35.397			
00:00:02	14.735	35.397			
00:00:02	16.039	35.397			
00:00:02	16.785	35.397			
00:00:02	17.640	35.397			
00:00:02	17.926	35.397			
00:00:02	17.873	35.397			
00:00:02	17.831	35.397			
00:00:02	17.055	35.397			
00:00:02	16.487	35.397			
00:00:02	15.863	35.397			
00:00:02	14.984	35.397			
00:00:02	14.171	35.397			
00:00:02	13.105	35.397			
00:00:02	12.160	35.397			
00:00:02	11.105	35.397			
00:00:02	9.907	35.397			
00:00:02	9.173	71.776			
00:00:02	8.040	71.776			
00:00:02	6.970	71.776			
00:00:02	5.984	71.776			
00:00:02	4.675	71.781			
00:00:02	3.743	71.781			
00:00:02	2.567	71.781			
00:00:02	1.571	71.781			
00:00:02	0.993	71.781			
00:00:02	0.010	71.781			
00:00:02	-0.446	71.781			
00:00:02	-0.861	71.781			
00:00:02	-1.171	71.781			
00:00:02	-1.065	71.781			
00:00:02	-1.216	71.781			
00:00:02	-1.085	71.781			
00:00:02	-0.921	71.781			
00:00:02	-0.874	71.781			
00:00:02	-0.520	71.781			
00:00:02	-0.436	71.781			
00:00:02	-0.163	71.781			
00:00:02	0.079	71.781			
00:00:02	-0.155	71.781			
00:00:02	0.062	71.781			
00:00:02	0.048	71.781			
00:00:02	0.116	71.781			
00:00:02	0.180	71.781			
00:00:02	-0.179	71.781			
00:00:02	-0.084	71.781			
00:00:02	-0.377	71.781			
00:00:02	-0.623	71.781			
00:00:02	-0.704	71.781			
00:00:02	-0.982	71.781			
00:00:02	-0.965	71.781			
00:00:02	-1.284	71.781			
00:00:02	-1.718	71.781			
00:00:02	-1.696	71.781			
00:00:02	-2.023	71.781			
00:00:02	-2.004	71.781			
00:00:02	-2.259	71.781			
00:00:02	-2.782	71.781			
00:00:02	-2.852	71.781			
00:00:02	-3.180	71.781			
00:00:02	-3.166	71.781			
00:00:02	-3.109	71.781			
00:00:02	-3.324	71.781			
00:00:02	-3.280	71.781			
00:00:02	-3.422	71.781			
00:00:02	-3.262	71.781			
00:00:02	-3.037	71.781			
00:00:02	-2.999	71.781			
00:00:02	-2.556	71.781			
00:00:02	-2.390	71.781			
00:00:02	-2.556	71.781			
00:00:02	-2.489	71.781			
00:00:02	-2.428	71.781			
00:00:03	-2.015	71.781			
00:00:03	-1.964	71.781			
00:00:03	-1.957	71.781			
00:00:03	-1.624	71.781			
00:00:03	-1.607	71.781			
00:00:03	-1.403	71.781			
00:00:03	-1.236	71.781			
00:00:03	-1.272	71.781			
00:00:03	-0.826	71.781			
00:00:03	-0.961	71.781			
00:00:03	-1.089	71.781			
00:00:03	-1.116	71.781			
00:00:03	-1.296	71.781			
00:00:03	-1.194	71.781			
00:00:03	-1.293	71.781			
00:00:03	-1.239	71.781			
00:00:03	-1.168	71.781			
00:00:03	-1.520	71.781			
00:00:03	-1.493	71.781			
00:00:03	-1.708	71.781			
00:00:03	-1.707	71.781			
00:00:03	-1.703	71.781			
00:00:03	-2.043	71.781			
00:00:03	-1.907	71.781			
00:00:03	-1.623	71.781			
00:00:03	-1.450	71.781			
00:00:03	-0.694	71.781			
00:00:03	0.153	71.781			
00:00:03	1.472	71.781			
00:00:03	3.033	71.781			
00:00:03	4.778	71.781			
00:00:03	7.219	71.781			
00:00:03	9.390	71.781			
00:00:03	11.593	71.781			
00:00:03	13.691	71.781			
00:00:03	15.341	71.781			
00:00:03	16.957	71.781			
00:00:03	17.779	71.781			
00:00:03	18.321	71.781			
00:00:03	18.668	71.781			
00:00:03	18.417	71.781			
00:00:03	18.382	71.781			
00:00:03	18.021	71.781			
00:00:03	17.458	71.781			
00:00:03	16.797	71.781			
00:00:03	15.644	71.781			
00:00:03	14.832	71.781			
00:00:03	13.790	71.781			
00:00:03	12.760	71.776			
00:00:03	11.963	71.776			
00:00:03	10.700	71.776			
00:00:03	9.539	71.776			
00:00:03	8.553	71.781			
00:00:03	7.535	71.781			
00:00:03	6.833	71.781			
00:00:03	5.699	71.781			
00:00:03	4.838	71.781			
00:00:03	4.040	71.781			
00:00:03	2.845	71.781			
00:00:03	1.998	71.781			
00:00:03	1.004	71.781			
00:00:03	0.203	71.781			
00:00:03	-0.250	71.781			
00:00:03	-0.845	71.781			
00:00:03	-0.873	71.781			
00:00:03	-1.184	71.781			
00:00:03	-1.343	71.781			
00:00:03	-1.035	71.781			
00:00:03	-1.086	71.781			
00:00:03	-0.669	71.781			
00:00:03	-0.325	71.781			
00:00:03	-0.216	71.781			
00:00:03	0.140	71.781			
00:00:03	0.167	71.781			
00:00:03	0.444	71.781			
00:00:03	0.570	71.781			
00:00:03	0.244	71.781			
00:00:03	0.358	71.781			
00:00:03	0.184	71.781			
00:00:03	0.027	71.781			
00:00:03	-0.020	71.781			
00:00:03	-0.359	71.781			
00:00:03	-0.482	71.781			
00:00:03	-0.910	71.781			
00:00:03	-1.159	71.781			
00:00:03	-1.310	71.781			
00:00:03	-1.660	71.781			
00:00:03	-1.729	71.781			
00:00:03	-2.039	71.781			
00:00:03	-2.235	71.781			
00:00:03	-2.195	71.781			
00:00:03	-2.456	71.781			
00:00:03	-2.527	71.781			
00:00:03	-2.712	71.781			
00:00:03	-3.010	71.781			
00:00:03	-2.909	71.781			
00:00:03	-3.062	71.781			
00:00:03	-2.877	71.781			
00:00:03	-2.837	71.781			
00:00:03	-2.881	71.781			
00:00:03	-2.617	71.781			
00:00:03	-2.576	71.781			
00:00:03	-2.451	71.781			
00:00:03	-2.299	71.781			
00:00:03	-2.472	71.781			
00:00:03	-2.280	71.781			
00:00:03	-2.383	71.781			
00:00:03	-2.418	71.781			
00:00:03	-2.073	71.781			
00:00:03	-2.094	71.781			
00:00:03	-1.762	71.781			
00:00:03	-1.753	71.781			
00:00:03	-1.911	71.781			
00:00:03	-1.802	71.781			
00:00:03	-1.979	71.781			
00:00:03	-1.682	71.781			
00:00:03	-1.434	71.781			
00:00:03	-1.537	71.781			
00:00:03	-1.339	71.781			
00:00:03	-1.435	71.781			
00:00:03	-1.344	71.781			
00:00:03	-1.368	71.781			
00:00:03	-1.518	71.781			
00:00:03	-1.257	71.781			
00:00:03	-1.468	71.781			
00:00:03	-1.756	71.781			
00:00:03	-1.808	71.781			
00:00:03	-2.028	71.781			
00:00:04	-1.887	71.781			
00:00:04	-1.908	71.781			
00:00:04	-1.988	71.781			
00:00:04	-2.008	71.781			
00:00:04	-2.151	71.781			
00:00:04	-1.622	71.781			
00:00:04	-0.922	71.781			
00:00:04	0.164	71.781			
00:00:04	1.703	71.781			
00:00:04	3.133	71.781			
00:00:04	5.168	71.781			
00:00:04	7.375	71.781			
00:00:04	9.401	71.781			
00:00:04	11.636	71.781			
00:00:04	13.415	71.781			
00:00:04	15.219	71.781			
00:00:04	16.677	71.781			
00:00:04	17.487	71.781			
00:00:04	18.198	71.781			
00:00:04	18.383	71.781			
00:00:04	18.390	71.781			
00:00:04	18.150	71.781			
00:00:04	17.483	71.781			
00:00:04	16.945	71.781			
00:00:04	16.011	71.781			
00:00:04	15.110	71.781			
00:00:04	14.347	71.781			
00:00:04	13.296	71.781			
00:00:04	12.430	71.111			
00:00:04	11.423	71.111			
00:00:04	10.533	71.111			
00:00:04	9.914	71.111			
00:00:04	8.834	71.116			
00:00:04	7.995	71.116			
00:00:04	7.033	71.116			
00:00:04	6.019	71.116			
00:00:04	5.053	71.116			
00:00:04	3.631	71.116			
00:00:04	2.566	71.116			
00:00:04	1.755	71.116			
00:00:04	0.723	71.116			
00:00:04	0.164	71.116			
00:00:04	-0.512	71.116			
00:00:04	-0.950	71.116			
00:00:04	-1.149	71.116			
00:00:04	-1.399	71.116			
00:00:04	-1.100	71.116			
00:00:04	-1.051	71.116			
00:00:04	-0.947	71.116			
00:00:04	-0.629	71.116			
00:00:04	-0.368	71.116			
00:00:04	0.287	71.116			
00:00:04	0.562	71.116			
00:00:04	0.622	71.116			
00:00:04	0.740	71.116			
00:00:04	0.529	71.116			
00:00:04	0.552	71.116			
00:00:04	0.597	71.116			
00:00:04	0.491	71.116			
00:00:04	0.588	71.116			
00:00:04	0.325	71.116			
00:00:04	0.306	71.116			
00:00:04	0.234	71.116			
00:00:04	-0.334	71.116			
00:00:04	-0.602	71.116			
00:00:04	-0.844	71.116			
00:00:04	-0.844	71.116			
00:00:04	-0.842	71.116			
00:00:04	-1.186	71.116			
00:00:04	-1.197	71.116			
00:00:04	-1.546	71.116			
00:00:04	-1.850	71.116			
00:00:04	-1.976	71.116			
00:00:04	-2.375	71.116			
00:00:04	-2.314	71.116			
00:00:04	-2.478	71.116			
00:00:04	-2.640	71.116			
00:00:04	-2.478	71.116			
00:00:04	-2.728	71.116			
00:00:04	-2.708	71.116			
00:00:04	-2.627	71.116			
00:00:04	-2.734	71.116			
00:00:04	-2.388	71.116			
00:00:04	-2.498	71.116			
00:00:04	-2.369	71.116			
00:00:04	-2.180	71.116			
00:00:04	-2.161	71.116			
00:00:04	-1.752	71.116			
00:00:04	-1.672	71.116			
00:00:04	-1.463	71.116			
00:00:04	-1.140	71.116			
00:00:04	-1.079	71.116			
00:00:04	-0.788	71.116			
00:00:04	-0.707	71.116			
00:00:04	-0.621	71.116			
00:00:04	-0.459	71.116			
00:00:04	-0.692	71.116			
00:00:04	-0.591	71.116			
00:00:04	-0.593	71.116			
00:00:04	-0.712	71.116			
00:00:04	-0.632	71.116			
00:00:04	-1.052	71.116			
00:00:04	-1.171	71.116			
00:00:04	-1.212	71.116			
00:00:04	-1.309	71.116			
00:00:04	-1.091	71.116			
00:00:04	-1.326	71.116			
00:00:04	-1.336	71.116			
00:00:04	-1.230	71.116			
00:00:04	-1.103	71.116			
00:00:04	-0.473	71.116			
00:00:04	0.162	71.116			
00:00:04	1.197	71.116			
00:00:04	2.733	71.116			
00:00:04	4.241	71.116			
00:00:04	6.399	71.116			
00:00:04	8.472	71.116			
00:00:04	10.460	71.116			
00:00:04	12.613	71.116			
00:00:04	14.013	71.116			
00:00:04	15.339	71.116			
00:00:04	16.307	71.116			
00:00:04	16.980	71.116			
00:00:04	17.449	71.116			
00:00:04	17.340	71.116			
00:00:04	17.279	71.116			
00:00:04	16.921	71.116			
00:00:04	16.087	71.116			
00:00:05	15.364	71.116			
00:00:05	14.302	71.116			
00:00:05	13.545	71.116			
00:00:05	12.743	71.116			
00:00:05	11.590	73.846			
00:00:05	10.881	73.846			
00:00:05	9.883	73.846			
00:00:05	8.734	73.846			
00:00:05	7.775	73.851			
00:00:05	6.645	73.851			
00:00:05	5.908	73.851			
00:00:05	4.845	73.851			
00:00:05	3.520	73.851			
00:00:05	2.664	73.851			
00:00:05	1.562	73.851			
00:00:05	0.856	73.851			
00:00:05	0.101	73.851			
00:00:05	-0.791	73.851			
00:00:05	-1.210	73.851			
00:00:05	-1.807	73.851			
00:00:05	-1.999	73.851			
00:00:05	-1.939	73.851			
00:00:05	-1.720	73.851			
00:00:05	-1.220	73.851			
00:00:05	-0.860	73.851			
00:00:05	-0.301	73.851			
00:00:05	0.193	73.851			
00:00:05	0.364	73.851			
00:00:05	0.804	73.851			
00:00:05	0.636	73.851			
00:00:05	0.642	73.851			
00:00:05	0.829	73.851			
00:00:05	0.645	73.851			
00:00:05	0.794	73.851			
00:00:05	0.573	73.851			
00:00:05	0.386	73.851			
00:00:05	0.483	73.851			
00:00:05	0.046	73.851			
00:00:05	-0.062	73.851			
00:00:05	-0.358	73.851			
00:00:05	-0.744	73.851			
00:00:05	-0.792	73.851			
00:00:05	-1.170	73.851			
00:00:05	-1.307	73.851			
00:00:05	-1.347	73.851			
00:00:05	-1.532	73.851			
00:00:05	-1.392	73.851			
00:00:05	-1.766	73.851			
00:00:05	-1.898	73.851			
00:00:05	-1.806	73.851			
00:00:05	-2.057	73.851			
00:00:05	-1.963	73.851			
00:00:05	-2.144	73.851			
00:00:05	-2.192	73.851			
00:00:05	-2.154	73.851			
00:00:05	-2.403	73.851			
00:00:05	-2.304	73.851			
00:00:05	-2.241	73.851			
00:00:05	-2.209	73.851			
00:00:05	-1.955	73.851			
00:00:05	-2.083	73.851			
00:00:05	-1.822	73.851			
00:00:05	-1.528	73.851			
00:00:05	-1.413	73.851			
00:00:05	-1.201	73.851			
00:00:05	-1.258	73.851			
00:00:05	-1.095	73.851			
00:00:05	-0.866	73.851			
00:00:05	-1.099	73.851			
00:00:05	-0.935	73.851			
00:00:05	-1.105	73.851			
00:00:05	-1.078	73.851			
00:00:05	-0.959	73.851			
00:00:05	-1.236	73.851			
00:00:05	-1.146	73.851			
00:00:05	-1.362	73.851			
00:00:05	-1.491	73.851			
00:00:05	-1.435	73.851			
00:00:05	-1.615	73.851			
00:00:05	-1.637	73.851			
00:00:05	-1.918	73.851			
00:00:05	-1.999	73.851			
00:00:05	-1.533	73.851			
00:00:05	-1.320	73.851			
00:00:05	-0.507	73.851			
00:00:05	0.577	73.851			
00:00:05	1.738	73.851			
00:00:05	3.390	73.851			
00:00:05	5.093	73.851			
00:00:05	7.405	73.851			
00:00:05	9.795	73.851			
00:00:05	11.882	73.851			
00:00:05	13.934	73.851			
00:00:05	15.311	73.851			
00:00:05	16.639	73.851			
00:00:05	17.860	73.851			
00:00:05	18.238	73.851			
00:00:05	18.528	73.851			
00:00:05	18.203	73.851			
00:00:05	17.810	73.851			
00:00:05	17.445	73.851			
00:00:05	16.512	73.851			
00:00:05	15.791	73.851			
00:00:05	14.885	73.851			
00:00:05	13.842	73.851			
00:00:05	12.982	73.851			
00:00:05	11.815	73.851			
00:00:05	10.797	73.851			
00:00:05	9.916	76.040			
00:00:05	8.872	76.040			
00:00:05	8.099	76.040			
00:00:05	7.022	76.040			
00:00:05	6.147	76.045			
00:00:05	5.270	76.045			
00:00:05	4.075	76.045			
00:00:05	3.365	76.045			
00:00:05	2.492	76.045			
00:00:05	1.537	76.045			
00:00:05	0.764	76.045			
00:00:05	-0.128	76.045			
00:00:05	-0.448	76.045			
00:00:05	-0.844	76.045			
00:00:05	-0.992	76.045			
00:00:05	-0.797	76.045			
00:00:05	-0.678	76.045			
00:00:05	-0.252	76.045			
00:00:05	0.006	76.045			
00:00:05	0.032	76.045			
00:00:06	0.376	76.045			
00:00:06	0.454	76.045			
00:00:06	0.683	76.045			
00:00:06	0.809	76.045			
00:00:06	0.738	76.045			
00:00:06	0.831	76.045			
00:00:06	0.534	76.045			
00:00:06	0.452	76.045			
00:00:06	0.404	76.045			
00:00:06	0.178	76.045			
00:00:06	0.437	76.045			
00:00:06	0.245	76.045			
00:00:06	-0.066	76.045			
00:00:06	-0.181	76.045			
00:00:06	-0.525	76.045			
00:00:06	-0.460	76.045			
00:00:06	-0.676	76.045			
00:00:06	-0.953	76.045			
00:00:06	-1.005	76.045			
00:00:06	-1.176	76.045			
00:00:06	-1.196	76.045			
00:00:06	-1.475	76.045			
00:00:06	-1.890	76.045			
00:00:06	-2.031	76.045			
00:00:06	-2.507	76.045			
00:00:06	-2.569	76.045			
00:00:06	-2.666	76.045			
00:00:06	-2.899	76.045			
00:00:06	-2.766	76.045			
00:00:06	-2.856	76.045			
00:00:06	-2.823	76.045			
00:00:06	-2.629	76.045			
00:00:06	-2.558	76.045			
00:00:06	-2.123	76.045			
00:00:06	-1.959	76.045			
00:00:06	-1.731	76.045			
00:00:06	-1.522	76.045			
00:00:06	-1.586	76.045			
00:00:06	-1.306	76.045			
00:00:06	-1.265	76.045			
00:00:06	-1.332	76.045			
00:00:06	-1.117	76.045			
00:00:06	-1.369	76.045			
00:00:06	-1.435	76.045			
00:00:06	-1.378	76.045			
00:00:06	-1.477	76.045			
00:00:06	-1.290	76.045			
00:00:06	-1.466	76.045			
00:00:06	-1.537	76.045			
00:00:06	-1.475	76.045			
00:00:06	-1.638	76.045			
00:00:06	-1.323	76.045			
00:00:06	-1.208	76.045			
00:00:06	-0.634	76.045			
00:00:06	0.300	76.045			
00:00:06	1.467	76.045			
00:00:06	3.162	76.045			
00:00:06	4.862	76.045			
00:00:06	6.794	76.045			
00:00:06	8.905	76.045			
00:00:06	10.670	76.045			
00:00:06	12.709	76.045			
00:00:06	14.328	76.045			
00:00:06	15.596	76.045			
00:00:06	16.803	76.045			
00:00:06	17.282	76.045			
00:00:06	17.701	76.045			
00:00:06	17.673	76.045			
00:00:06	17.219	76.045			
00:00:06	16.934	76.045			
00:00:06	16.267	76.045			
00:00:06	15.568	76.045			
00:00:06	14.623	76.045			
00:00:06	13.627	76.045			
00:00:06	12.960	76.045			
00:00:06	11.993	76.045			
00:00:06	11.206	78.367			
00:00:06	10.466	78.367			
00:00:06	9.480	78.367			
00:00:06	8.812	78.367			
00:00:06	7.904	78.372			
00:00:06	7.143	78.372			
00:00:06	6.387	78.372			
00:00:06	5.102	78.372			
00:00:06	4.138	78.372			
00:00:06	2.945	78.372			
00:00:06	1.932	78.372			
00:00:06	1.275	78.372			
00:00:06	0.401	78.372			
00:00:06	-0.042	78.372			
00:00:06	-0.510	78.372			
00:00:06	-0.875	78.372			
00:00:06	-0.818	78.372			
00:00:06	-0.963	78.372			
00:00:06	-0.615	78.372			
00:00:06	-0.263	78.372			
00:00:06	-0.195	78.372			
00:00:06	0.224	78.372			
00:00:06	0.434	78.372			
00:00:06	0.713	78.372			
00:00:06	0.969	78.372			
00:00:06	0.777	78.372			
00:00:06	0.986	78.372			
00:00:06	0.952	78.372			
00:00:06	0.946	78.372			
00:00:06	1.057	78.372			
00:00:06	0.673	78.372			
00:00:06	0.504	78.372			
00:00:06	0.356	78.372			
00:00:06	0.172	78.372			
00:00:06	0.194	78.372			
00:00:06	-0.028	78.372			
00:00:06	-0.022	78.372			
00:00:06	-0.258	78.372			
00:00:06	-0.698	78.372			
00:00:06	-0.838	78.372			
00:00:06	-1.083	78.372			
00:00:06	-1.091	78.372			
00:00:06	-1.155	78.372			
00:00:06	-1.477	78.372			
00:00:06	-1.496	78.372			
00:00:06	-1.681	78.372			
00:00:06	-1.641	78.372			
00:00:06	-1.667	78.372			
00:00:06	-2.041	78.372			
00:00:06	-1.945	78.372			
00:00:06	-1.957	78.372			
00:00:06	-1.926	78.372			
00:00:07	-1.686	78.372			
00:00:07	-1.840	78.372			
00:00:07	-1.668	78.372			
00:00:07	-1.669	78.372			
00:00:07	-1.813	78.372			
00:00:07	-1.475	78.372			
00:00:07	-1.463	78.372			
00:00:07	-1.211	78.372			
00:00:07	-1.067	78.372			
00:00:07	-1.117	78.372			
00:00:07	-0.931	78.372			
00:00:07	-1.174	78.372			
00:00:07	-1.145	78.372			
00:00:07	-0.888	78.372			
00:00:07	-0.920	78.372			
00:00:07	-0.801	78.372			
00:00:07	-1.036	78.372			
00:00:07	-0.998	78.372			
00:00:07	-0.879	78.372			
00:00:07	-1.014	78.372			
00:00:07	-0.787	78.372			
00:00:07	-0.523	78.372			
00:00:07	0.065	78.372			
00:00:07	1.393	78.372			
00:00:07	2.633	78.372			
00:00:07	4.240	78.372			
00:00:07	6.088	78.372			
00:00:07	8.066	78.372			
00:00:07	10.375	78.372			
00:00:07	12.253	78.372			
00:00:07	14.076	78.372			
00:00:07	15.626	78.372			
00:00:07	16.633	78.372			
00:00:07	17.613	78.372			
00:00:07	17.919	78.372			
00:00:07	18.088	78.372			
00:00:07	17.878	78.372			
00:00:07	17.208	78.372			
00:00:07	16.966	78.372			
00:00:07	16.179	78.372			
00:00:07	15.373	78.372			
00:00:07	14.461	78.372			
00:00:07	13.241	78.372			
00:00:07	12.522	78.372			
00:00:07	11.640	80.000			
00:00:07	10.678	80.000			
00:00:07	9.807	80.000			
00:00:07	8.502	80.000			
00:00:07	7.595	80.005			
00:00:07	6.645	80.005			
00:00:07	5.735	80.005			
00:00:07	5.154	80.005			
00:00:07	4.082	80.005			
00:00:07	3.303	80.005			
00:00:07	2.524	80.005			
00:00:07	1.788	80.005			
00:00:07	1.282	80.005			
00:00:07	0.449	80.005			
00:00:07	-0.114	80.005			
00:00:07	-0.401	80.005			
00:00:07	-0.739	80.005			
00:00:07	-0.589	80.005			
00:00:07	-0.570	80.005			
00:00:07	-0.483	80.005			
00:00:07	-0.168	80.005			
00:00:07	-0.125	80.005			
00:00:07	0.220	80.005			
00:00:07	0.299	80.005			
00:00:07	0.481	80.005			
00:00:07	0.885	80.005			
00:00:07	0.892	80.005			
00:00:07	1.035	80.005			
00:00:07	0.929	80.005			
00:00:07	0.800	80.005			
00:00:07	0.952	80.005			
00:00:07	0.641	80.005			
00:00:07	0.631	80.005			
00:00:07	0.414	80.005			
00:00:07	0.106	80.005			
00:00:07	-0.117	80.005			
00:00:07	-0.725	80.005			
00:00:07	-1.000	80.005			
00:00:07	-1.040	80.005			
00:00:07	-1.168	80.005			
00:00:07	-1.060	80.005			
00:00:07	-1.364	80.005			
00:00:07	-1.516	80.005			
00:00:07	-1.491	80.005			
00:00:07	-1.756	80.005			
00:00:07	-1.855	80.005			
00:00:07	-2.184	80.005			
00:00:07	-2.379	80.005			
00:00:07	-2.296	80.005			
00:00:07	-2.520	80.005			
00:00:07	-2.371	80.005			
00:00:07	-2.411	80.005			
00:00:07	-2.524	80.005			
00:00:07	-2.206	80.005			
00:00:07	-2.158	80.005			
00:00:07	-1.913	80.005			
00:00:07	-1.778	80.005			
00:00:07	-1.920	80.005			
00:00:07	-1.653	80.005			
00:00:07	-1.548	80.005			
00:00:07	-1.301	80.005			
00:00:07	-0.972	80.005			
00:00:07	-1.114	80.005			
00:00:07	-0.937	80.005			
00:00:07	-0.937	80.005			
00:00:07	-0.926	80.005			
00:00:07	-0.846	80.005			
00:00:07	-1.052	80.005			
00:00:07	-0.980	80.005			
00:00:07	-0.980	80.005			
00:00:07	-1.169	80.005			
00:00:07	-1.063	80.005			
00:00:07	-1.294	80.005			
00:00:07	-1.109	80.005			
00:00:07	-1.033	80.005			
00:00:07	-0.866	80.005			
00:00:07	-0.122	80.005			
00:00:07	0.583	80.005			
00:00:07	1.864	80.005			
00:00:07	3.498	80.005			
00:00:07	5.195	80.005			
00:00:07	7.448	80.005			
00:00:07	9.250	80.005			
00:00:07	11.138	80.005			
00:00:08	13.086	80.005			
00:00:08	14.434	80.005			
00:00:08	15.732	80.005			
00:00:08	16.393	80.005			
00:00:08	16.916	80.005			
00:00:08	17.474	80.005			
00:00:08	17.400	80.005			
00:00:08	17.324	80.005			
00:00:08	16.940	80.005			
00:00:08	16.327	80.005			
00:00:08	15.693	80.005			
00:00:08	14.481	80.005			
00:00:08	13.531	80.005			
00:00:08	12.692	80.005			
00:00:08	11.699	80.005			
00:00:08	10.845	80.005			
00:00:08	9.713	77.576			
00:00:08	8.837	77.576			
00:00:08	8.022	77.576			
00:00:08	6.974	77.576			
00:00:08	6.111	77.581			
00:00:08	4.884	77.581			
00:00:08	3.706	77.581			
00:00:08	2.716	77.581			
00:00:08	1.663	77.581			
00:00:08	1.112	77.581			
00:00:08	0.432	77.581			
00:00:08	-0.100	77.581			
00:00:08	-0.286	77.581			
00:00:08	-0.790	77.581			
00:00:08	-0.708	77.581			
00:00:08	-0.743	77.581			
00:00:08	-0.809	77.581			
00:00:08	-0.564	77.581			
00:00:08	-0.701	77.581			
00:00:08	-0.351	77.581			
00:00:08	0.095	77.581			
00:00:08	0.147	77.581			
00:00:08	0.417	77.581			
00:00:08	0.419	77.581			
00:00:08	0.737	77.581			
00:00:08	1.010	77.581			
00:00:08	0.983	77.581			
00:00:08	1.248	77.581			
00:00:08	1.107	77.581			
00:00:08	1.049	77.581			
00:00:08	1.085	77.581			
00:00:08	0.762	77.581			
00:00:08	0.670	77.581			
00:00:08	0.204	77.581			
00:00:08	-0.222	77.581			
00:00:08	-0.358	77.581			
00:00:08	-0.747	77.581			
00:00:08	-0.819	77.581			
00:00:08	-1.157	77.581			
00:00:08	-1.549	77.581			
00:00:08	-1.541	77.581			
00:00:08	-1.901	77.581			
00:00:08	-1.944	77.581			
00:00:08	-1.980	77.581			
00:00:08	-2.388	77.581			
00:00:08	-2.331	77.581			
00:00:08	-2.438	77.581			
00:00:08	-2.150	77.581			
00:00:08	-1.902	77.581			
00:00:08	-2.073	77.581			
00:00:08	-1.712	77.581			
00:00:08	-1.666	77.581			
00:00:08	-1.654	77.581			
00:00:08	-1.599	77.581			
00:00:08	-1.778	77.581			
00:00:08	-1.469	77.581			
00:00:08	-1.318	77.581			
00:00:08	-1.192	77.581			
00:00:08	-0.842	77.581			
00:00:08	-0.966	77.581			
00:00:08	-0.873	77.581			
00:00:08	-0.804	77.581			
00:00:08	-0.774	77.581			
00:00:08	-0.517	77.581			
00:00:08	-0.758	77.581			
00:00:08	-0.698	77.581			
00:00:08	-0.643	77.581			
00:00:08	-0.716	77.581			
00:00:08	-0.634	77.581			
00:00:08	-1.030	77.581			
00:00:08	-1.045	77.581			
00:00:08	-0.930	77.581			
00:00:08	-1.107	77.581			
00:00:08	-1.056	77.581			
00:00:08	-1.271	77.581			
00:00:08	-1.010	77.581			
00:00:08	-0.361	77.581			
00:00:08	0.208	77.581			
00:00:08	1.425	77.581			
00:00:08	2.746	77.581			
00:00:08	4.319	77.581			
00:00:08	6.415	77.581			
00:00:08	8.336	77.581			
00:00:08	10.360	77.581			
00:00:08	12.093	77.581			
00:00:08	13.617	77.581			
00:00:08	15.047	77.581			
00:00:08	15.895	77.581			
00:00:08	16.641	77.581			
00:00:08	17.013	77.581			
00:00:08	16.965	77.581			
00:00:08	16.939	77.581			
00:00:08	16.527	77.581			
00:00:08	15.937	77.581			
00:00:08	15.317	77.581			
00:00:08	14.130	77.581			
00:00:08	13.308	77.581			
00:00:08	12.270	77.581			
00:00:08	11.361	77.581			
00:00:08	10.502	77.581			
00:00:08	9.240	76.800			
00:00:08	8.341	76.800			
00:00:08	7.141	76.800			
00:00:08	6.082	76.800			
00:00:08	5.520	76.805			
00:00:08	4.511	76.805			
00:00:08	3.647	76.805			
00:00:08	2.685	76.805			
00:00:08	1.851	76.805			
00:00:08	1.390	76.805			
00:00:08	0.628	76.805			
00:00:08	0.204	76.805			
00:00:09	-0.140	76.805			
00:00:09	-0.415	76.805			
00:00:09	-0.256	76.805			
00:00:09	-0.202	76.805			
00:00:09	0.032	76.805			
00:00:09	0.417	76.805			
00:00:09	0.529	76.805			
00:00:09	1.090	76.805			
00:00:09	1.293	76.805			
00:00:09	1.341	76.805			
00:00:09	1.379	76.805			
00:00:09	1.172	76.805			
00:00:09	1.399	76.805			
00:00:09	1.498	76.805			
00:00:09	1.427	76.805			
00:00:09	1.341	76.805			
00:00:09	1.005	76.805			
00:00:09	1.012	76.805			
00:00:09	0.971	76.805			
00:00:09	0.800	76.805			
00:00:09	0.835	76.805			
00:00:09	0.398	76.805			
00:00:09	0.143	76.805			
00:00:09	-0.194	76.805			
00:00:09	-0.457	76.805			
00:00:09	-0.197	76.805			
00:00:09	-0.489	76.805			
00:00:09	-0.764	76.805			
00:00:09	-1.210	76.805			
00:00:09	-1.660	76.805			
00:00:09	-1.621	76.805			
00:00:09	-1.893	76.805			
00:00:09	-2.025	76.805			
00:00:09	-2.058	76.805			
00:00:09	-2.384	76.805			
00:00:09	-2.228	76.805			
00:00:09	-2.212	76.805			
00:00:09	-2.200	76.805			
00:00:09	-1.888	76.805			
00:00:09	-1.900	76.805			
00:00:09	-1.537	76.805			
00:00:09	-1.299	76.805			
00:00:09	-1.158	76.805			
00:00:09	-0.860	76.805			
00:00:09	-0.952	76.805			
00:00:09	-0.787	76.805			
00:00:09	-0.570	76.805			
00:00:09	-0.678	76.805			
00:00:09	-0.455	76.805			
00:00:09	-0.585	76.805			
00:00:09	-0.722	76.805			
00:00:09	-0.645	76.805			
00:00:09	-0.695	76.805			
00:00:09	-0.588	76.805			
00:00:09	-0.816	76.805			
00:00:09	-0.933	76.805			
00:00:09	-0.846	76.805			
00:00:09	-0.956	76.805			
00:00:09	-0.829	76.805			
00:00:09	-0.888	76.805			
00:00:09	-0.769	76.805			
00:00:09	-0.480	76.805			
00:00:09	-0.440	76.805			
00:00:09	0.020	76.805			
00:00:09	0.594	76.805			
00:00:09	1.379	76.805			
00:00:09	2.920	76.805			
00:00:09	4.417	76.805			
00:00:09	6.453	76.805			
00:00:09	8.557	76.805			
00:00:09	10.310	76.805			
00:00:09	12.343	76.805			
00:00:09	13.852	76.805			
00:00:09	15.076	76.805			
00:00:09	15.922	76.805			
00:00:09	16.404	76.805			
00:00:09	16.948	76.805			
00:00:09	16.975	76.805			
00:00:09	16.689	76.805			
00:00:09	16.327	76.805			
00:00:09	15.512	76.805			
00:00:09	15.106	76.805			
00:00:09	14.401	76.805			
00:00:09	13.446	76.805			
00:00:09	12.584	76.805			
00:00:09	11.353	76.805			
00:00:09	10.426	76.805			
00:00:09	9.470	76.805			
00:00:09	8.393	77.576			
00:00:09	7.528	77.576			
00:00:09	6.392	77.576			
00:00:09	5.717	77.576			
00:00:09	5.067	77.581			
00:00:09	3.926	77.581			
00:00:09	2.964	77.581			
00:00:09	1.831	77.581			
00:00:09	1.029	77.581			
00:00:09	0.507	77.581			
00:00:09	0.003	77.581			
00:00:09	-0.152	77.581			
00:00:09	-0.545	77.581			
00:00:09	-0.649	77.581			
00:00:09	-0.426	77.581			
00:00:09	-0.475	77.581			
00:00:09	0.003	77.581			
00:00:09	0.234	77.581			
00:00:09	0.328	77.581			
00:00:09	0.933	77.581			
00:00:09	1.072	77.581			
00:00:09	1.244	77.581			
00:00:09	1.388	77.581			
00:00:09	1.249	77.581			
00:00:09	1.368	77.581			
00:00:09	1.153	77.581			
00:00:09	0.963	77.581			
00:00:09	0.896	77.581			
00:00:09	0.556	77.581			
00:00:09	0.468	77.581			
00:00:09	0.158	77.581			
00:00:09	-0.055	77.581			
00:00:09	-0.013	77.581			
00:00:09	-0.375	77.581			
00:00:09	-0.354	77.581			
00:00:09	-0.553	77.581			
00:00:09	-0.875	77.581			
00:00:09	-0.960	77.581			
00:00:09	-1.397	77.581			
00:00:09	-1.476	77.581			
00:00:10	-1.637	77.581			
00:00:10	-1.721	77.581			
00:00:10	-1.473	77.581			
00:00:10	-1.621	77.581			
00:00:10	-1.586	77.581			
00:00:10	-1.648	77.581			
00:00:10	-1.848	77.581			
00:00:10	-1.618	77.581			
00:00:10	-1.725	77.581			
00:00:10	-1.753	77.581			
00:00:10	-1.641	77.581			
00:00:10	-1.738	77.581			
00:00:10	-1.446	77.581			
00:00:10	-1.393	77.581			
00:00:10	-1.281	77.581			
00:00:10	-0.950	77.581			
00:00:10	-0.926	77.581			
00:00:10	-0.535	77.581			
00:00:10	-0.442	77.581			
00:00:10	-0.283	77.581			
00:00:10	-0.023	77.581			
00:00:10	-0.185	77.581			
00:00:10	-0.059	77.581			
00:00:10	-0.064	77.581			
00:00:10	-0.263	77.581			
00:00:10	-0.280	77.581			
00:00:10	-0.521	77.581			
00:00:10	-0.380	77.581			
00:00:10	-0.290	77.581			
00:00:10	-0.593	77.581			
00:00:10	-0.488	77.581			
00:00:10	-0.654	77.581			
00:00:10	-0.520	77.581			
00:00:10	-0.537	77.581			
00:00:10	-0.718	77.581			
00:00:10	-0.349	77.581			
00:00:10	-0.013	77.581			
00:00:10	0.460	77.581			
00:00:10	1.415	77.581			
00:00:10	2.432	77.581			
00:00:10	4.171	77.581			
00:00:10	6.003	77.581			
00:00:10	7.962	77.581			
00:00:10	10.121	77.581			
00:00:10	11.940	77.581			
00:00:10	13.885	77.581			
00:00:10	15.492	77.581			
00:00:10	16.504	77.581			
00:00:10	17.578	77.581			
00:00:10	17.949	77.581			
00:00:10	18.143	77.581			
00:00:10	18.072	77.581			
00:00:10	17.724	77.581			
00:00:10	17.370	77.581			
00:00:10	16.491	77.581			
00:00:10	15.723	77.581			
00:00:10	14.949	77.581			
00:00:10	13.863	77.581			
00:00:10	13.013	77.581			
00:00:10	11.978	77.581			
00:00:10	11.028	76.040			
00:00:10	10.319	76.040			
00:00:10	9.270	76.040			
00:00:10	8.590	76.040			
00:00:10	7.657	76.045			
00:00:10	6.565	76.045			
00:00:10	5.753	76.045			
00:00:10	4.561	76.045			
00:00:10	3.783	76.045			
00:00:10	2.944	76.045			
00:00:10	2.060	76.045			
00:00:10	1.561	76.045			
00:00:10	0.786	76.045			
00:00:10	0.309	76.045			
00:00:10	-0.048	76.045			
00:00:10	-0.452	76.045			
00:00:10	-0.370	76.045			
00:00:10	-0.300	76.045			
00:00:10	-0.086	76.045			
00:00:10	0.254	76.045			
00:00:10	0.480	76.045			
00:00:10	1.117	76.045			
00:00:10	1.132	76.045			
00:00:10	1.245	76.045			
00:00:10	1.483	76.045			
00:00:10	1.466	76.045			
00:00:10	1.691	76.045			
00:00:10	1.720	76.045			
00:00:10	1.585	76.045			
00:00:10	1.688	76.045			
00:00:10	1.361	76.045			
00:00:10	1.204	76.045			
00:00:10	0.906	76.045			
00:00:10	0.487	76.045			
00:00:10	0.360	76.045			
00:00:10	-0.114	76.045			
00:00:10	-0.281	76.045			
00:00:10	-0.449	76.045			
00:00:10	-0.975	76.045			
00:00:10	-1.010	76.045			
00:00:10	-1.392	76.045			
00:00:10	-1.400	76.045			
00:00:10	-1.314	76.045			
00:00:10	-1.675	76.045			
00:00:10	-1.623	76.045			
00:00:10	-1.685	76.045			
00:00:10	-1.822	76.045			
00:00:10	-1.680	76.045			
00:00:10	-1.672	76.045			
00:00:10	-1.458	76.045			
00:00:10	-1.374	76.045			
00:00:10	-1.367	76.045			
00:00:10	-1.212	76.045			
00:00:10	-1.480	76.045			
00:00:10	-1.458	76.045			
00:00:10	-1.329	76.045			
00:00:10	-1.287	76.045			
00:00:10	-0.915	76.045			
00:00:10	-0.991	76.045			
00:00:10	-0.830	76.045			
00:00:10	-0.568	76.045			
00:00:10	-0.543	76.045			
00:00:10	-0.054	76.045			
00:00:10	0.084	76.045			
00:00:10	0.089	76.045			
00:00:10	0.136	76.045			
00:00:10	-0.075	76.045			
00:00:10	0.050	76.045			
00:00:11	-0.138	76.045			
00:00:11	-0.301	76.045			
00:00:11	-0.061	76.045			
00:00:11	-0.197	76.045			
00:00:11	-0.227	76.045			
00:00:11	-0.362	76.045			
00:00:11	-0.555	76.045			
00:00:11	-0.466	76.045			
00:00:11	-0.789	76.045			
00:00:11	-0.897	76.045			
00:00:11	-0.816	76.045			
00:00:11	-0.891	76.045			
00:00:11	-0.654	76.045			
00:00:11	-0.499	76.045			
00:00:11	0.081	76.045			
00:00:11	0.963	76.045			
00:00:11	2.000	76.045			
00:00:11	3.722	76.045			
00:00:11	5.498	76.045			
00:00:11	7.496	76.045			
00:00:11	9.694	76.045			
00:00:11	11.408	76.045			
00:00:11	13.402	76.045			
00:00:11	14.814	76.045			
00:00:11	15.955	76.045			
00:00:11	17.082	76.045			
00:00:11	17.565	76.045			
00:00:11	18.052	76.045			
00:00:11	17.895	76.045			
00:00:11	17.301	76.045			
00:00:11	16.959	76.045			
00:00:11	16.162	76.045			
00:00:11	15.417	76.045			
00:00:11	14.564	76.045			
00:00:11	13.382	76.045			
00:00:11	12.595	76.045			
00:00:11	11.618	73.143			
00:00:11	10.657	73.143			
00:00:11	9.860	73.143			
00:00:11	8.937	73.143			
00:00:11	8.359	73.148			
00:00:11	7.497	73.148			
00:00:11	6.530	73.148			
00:00:11	5.553	73.148			
00:00:11	4.357	73.148			
00:00:11	3.716	73.148			
00:00:11	2.920	73.148			
00:00:11	1.975	73.148			
00:00:11	1.336	73.148			
00:00:11	0.599	73.148			
00:00:11	0.397	73.148			
00:00:11	0.149	73.148			
00:00:11	-0.210	73.148			
00:00:11	-0.159	73.148			
00:00:11	-0.236	73.148			
00:00:11	0.127	73.148			
00:00:11	0.333	73.148			
00:00:11	0.246	73.148			
00:00:11	0.550	73.148			
00:00:11	0.756	73.148			
00:00:11	1.008	73.148			
00:00:11	1.276	73.148			
00:00:11	1.396	73.148			
00:00:11	1.694	73.148			
00:00:11	1.578	73.148			
00:00:11	1.368	73.148			
00:00:11	1.220	73.148			
00:00:11	0.832	73.148			
00:00:11	0.795	73.148			
00:00:11	0.582	73.148			
00:00:11	0.212	73.148			
00:00:11	0.159	73.148			
00:00:11	-0.185	73.148			
00:00:11	-0.518	73.148			
00:00:11	-0.914	73.148			
00:00:11	-1.228	73.148			
00:00:11	-1.034	73.148			
00:00:11	-1.390	73.148			
00:00:11	-1.434	73.148			
00:00:11	-1.479	73.148			
00:00:11	-1.656	73.148			
00:00:11	-1.450	73.148			
00:00:11	-1.579	73.148			
00:00:11	-1.767	73.148			
00:00:11	-1.662	73.148			
00:00:11	-1.729	73.148			
00:00:11	-1.305	73.148			
00:00:11	-1.271	73.148			
00:00:11	-1.399	73.148			
00:00:11	-1.158	73.148			
00:00:11	-1.361	73.148			
00:00:11	-1.195	73.148			
00:00:11	-1.226	73.148			
00:00:11	-1.298	73.148			
00:00:11	-1.131	73.148			
00:00:11	-1.306	73.148			
00:00:11	-0.982	73.148			
00:00:11	-0.750	73.148			
00:00:11	-0.666	73.148			
00:00:11	-0.228	73.148			
00:00:11	-0.080	73.148			
00:00:11	0.113	73.148			
00:00:11	0.225	73.148			
00:00:11	0.001	73.148			
00:00:11	0.230	73.148			
00:00:11	-0.029	73.148			
00:00:11	-0.128	73.148			
00:00:11	-0.051	73.148			
00:00:11	-0.319	73.148			
00:00:11	-0.312	73.148			
00:00:11	-0.450	73.148			
00:00:11	-0.553	73.148			
00:00:11	-0.449	73.148			
00:00:11	-0.798	73.148			
00:00:11	-0.885	73.148			
00:00:11	-0.949	73.148			
00:00:11	-1.065	73.148			
00:00:11	-0.976	73.148			
00:00:11	-1.243	73.148			
00:00:11	-1.077	73.148			
00:00:11	-0.482	73.148			
00:00:11	0.193	73.148			
00:00:11	1.311	73.148			
00:00:11	2.408	73.148			
00:00:11	4.144	73.148			
00:00:11	6.124	73.148			
00:00:11	7.890	73.148			
00:00:11	9.892	73.148			
00:00:12	11.659	73.148			
00:00:12	13.429	73.148			
00:00:12	15.175	73.148			
00:00:12	16.139	73.148			
00:00:12	16.995	73.148			
00:00:12	17.167	73.148			
00:00:12	17.158	73.148			
00:00:12	17.262	73.148			
00:00:12	16.786	73.148			
00:00:12	16.347	73.148			
00:00:12	15.678	73.148			
00:00:12	14.857	73.148			
00:00:12	14.149	73.148			
00:00:12	12.996	73.148			
00:00:12	11.970	73.148			
00:00:12	10.875	73.148			
00:00:12	9.660	71.776			
00:00:12	9.053	71.776			
00:00:12	8.159	71.776			
00:00:12	7.396	71.776			
00:00:12	6.745	71.781			
00:00:12	5.812	71.781			
00:00:12	5.083	71.781			
00:00:12	4.147	71.781			
00:00:12	3.188	71.781			
00:00:12	2.404	71.781			
00:00:12	1.447	71.781			
00:00:12	0.806	71.781			
00:00:12	0.229	71.781			
00:00:12	-0.126	71.781			
00:00:12	-0.096	71.781			
00:00:12	-0.224	71.781			
00:00:12	-0.100	71.781			
00:00:12	-0.047	71.781			
00:00:12	0.066	71.781			
00:00:12	0.406	71.781			
00:00:12	0.468	71.781			
00:00:12	0.853	71.781			
00:00:12	1.085	71.781			
00:00:12	1.047	71.781			
00:00:12	1.431	71.781			
00:00:12	1.549	71.781			
00:00:12	1.700	71.781			
00:00:12	1.829	71.781			
00:00:12	1.591	71.781			
00:00:12	1.654	71.781			
00:00:12	1.354	71.781			
00:00:12	1.056	71.781			
00:00:12	0.818	71.781			
00:00:12	0.422	71.781			
00:00:12	0.391	71.781			
00:00:12	0.115	71.781			
00:00:12	-0.291	71.781			
00:00:12	-0.521	71.781			
00:00:12	-1.009	71.781			
00:00:12	-0.999	71.781			
00:00:12	-0.964	71.781			
00:00:12	-1.213	71.781			
00:00:12	-1.230	71.781			
00:00:12	-1.513	71.781			
00:00:12	-1.433	71.781			
00:00:12	-1.402	71.781			
00:00:12	-1.594	71.781			
00:00:12	-1.468	71.781			
00:00:12	-1.551	71.781			
00:00:12	-1.494	71.781			
00:00:12	-1.458	71.781			
00:00:12	-1.622	71.781			
00:00:12	-1.315	71.781			
00:00:12	-1.184	71.781			
00:00:12	-0.983	71.781			
00:00:12	-0.811	71.781			
00:00:12	-1.054	71.781			
00:00:12	-0.915	71.781			
00:00:12	-0.814	71.781			
00:00:12	-0.776	71.781			
00:00:12	-0.510	71.781			
00:00:12	-0.485	71.781			
00:00:12	-0.145	71.781			
00:00:12	-0.051	71.781			
00:00:12	-0.223	71.781			
00:00:12	0.131	71.781			
00:00:12	0.202	71.781			
00:00:12	0.255	71.781			
00:00:12	0.252	71.781			
00:00:12	0.067	71.781			
00:00:12	0.232	71.781			
00:00:12	0.116	71.781			
00:00:12	0.007	71.781			
00:00:12	-0.120	71.781			
00:00:12	-0.464	71.781			
00:00:12	-0.224	71.781			
00:00:12	-0.314	71.781			
00:00:12	-0.483	71.781			
00:00:12	-0.402	71.781			
00:00:12	-0.722	71.781			
00:00:12	-0.774	71.781			
00:00:12	-0.739	71.781			
00:00:12	-0.774	71.781			
00:00:12	-0.336	71.781			
00:00:12	-0.123	71.781			
00:00:12	0.689	71.781			
00:00:12	1.888	71.781			
00:00:12	3.257	71.781			
00:00:12	5.171	71.781			
00:00:12	6.981	71.781			
00:00:12	9.097	71.781			
00:00:12	11.267	71.781			
00:00:12	12.881	71.781			
00:00:12	14.480	71.781			
00:00:12	15.660	71.781			
00:00:12	16.765	71.781			
00:00:12	17.305	71.781			
00:00:12	17.157	71.781			
00:00:12	17.029	71.781			
00:00:12	16.631	71.781			
00:00:12	16.053	71.781			
00:00:12	15.556	71.781			
00:00:12	14.424	71.781			
00:00:12	13.512	71.781			
00:00:12	12.674	71.781			
00:00:12	11.658	71.781			
00:00:12	10.907	71.781			
00:00:12	9.707	71.781			
00:00:12	8.812	71.776			
00:00:12	8.118	71.776			
00:00:12	7.414	71.776			
00:00:12	6.629	71.776			
00:00:13	5.280	71.781			
00:00:13	4.217	71.781			
00:00:13	3.283	71.781			
00:00:13	2.256	71.781			
00:00:13	1.675	71.781			
00:00:13	1.075	71.781			
00:00:13	0.582	71.781			
00:00:13	0.389	71.781			
00:00:13	-0.096	71.781			
00:00:13	-0.231	71.781			
00:00:13	-0.255	71.781			
00:00:13	-0.062	71.781			
00:00:13	0.391	71.781			
00:00:13	0.400	71.781			
00:00:13	0.660	71.781			
00:00:13	0.942	71.781			
00:00:13	1.110	71.781			
00:00:13	1.512	71.781			
00:00:13	1.538	71.781			
00:00:13	1.658	71.781			
00:00:13	1.712	71.781			
00:00:13	1.611	71.781			
00:00:13	1.835	71.781			
00:00:13	1.689	71.781			
00:00:13	1.548	71.781			
00:00:13	1.441	71.781			
00:00:13	1.096	71.781			
00:00:13	1.058	71.781			
00:00:13	0.743	71.781			
00:00:13	0.430	71.781			
00:00:13	0.345	71.781			
00:00:13	0.033	71.781			
00:00:13	0.158	71.781			
00:00:13	-0.097	71.781			
00:00:13	-0.410	71.781			
00:00:13	-0.381	71.781			
00:00:13	-0.746	71.781			
00:00:13	-0.892	71.781			
00:00:13	-1.090	71.781			
00:00:13	-1.380	71.781			
00:00:13	-1.288	71.781			
00:00:13	-1.602	71.781			
00:00:13	-1.609	71.781			
00:00:13	-1.662	71.781			
00:00:13	-1.783	71.781			
00:00:13	-1.438	71.781			
00:00:13	-1.236	71.781			
00:00:13	-1.006	71.781			
00:00:13	-0.795	71.781			
00:00:13	-0.873	71.781			
00:00:13	-0.487	71.781			
00:00:13	-0.410	71.781			
00:00:13	-0.501	71.781			
00:00:13	-0.482	71.781			
00:00:13	-0.748	71.781			
00:00:13	-0.664	71.781			
00:00:13	-0.504	71.781			
00:00:13	-0.242	71.781			
00:00:13	0.169	71.781			
00:00:13	0.036	71.781			
00:00:13	0.256	71.781			
00:00:13	0.342	71.781			
00:00:13	0.157	71.781			
00:00:13	0.263	71.781			
00:00:13	0.091	71.781			
00:00:13	0.210	71.781			
00:00:13	0.423	71.781			
00:00:13	0.331	71.781			
00:00:13	0.262	71.781			
00:00:13	-0.225	71.781			
00:00:13	-0.404	71.781			
00:00:13	-0.319	71.781			
00:00:13	-0.444	71.781			
00:00:13	-0.380	71.781			
00:00:13	-0.527	71.781			
00:00:13	-0.579	71.781			
00:00:13	-0.182	71.781			
00:00:13	0.163	71.781			
00:00:13	0.994	71.781			
00:00:13	1.866	71.781			
00:00:13	2.898	71.781			
00:00:13	4.489	71.781			
00:00:13	6.166	71.781			
00:00:13	8.244	71.781			
00:00:13	10.255	71.781			
00:00:13	12.046	71.781			
00:00:13	13.919	71.781			
00:00:13	15.047	71.781			
00:00:13	16.136	71.781			
00:00:13	16.883	71.781			
00:00:13	16.995	71.781			
00:00:13	17.110	71.781			
00:00:13	16.836	71.781			
00:00:13	16.437	71.781			
00:00:13	15.965	71.781			
00:00:13	15.061	71.781			
00:00:13	14.387	71.781			
00:00:13	13.477	71.781			
00:00:13	12.519	71.781			
00:00:13	11.651	71.781			
00:00:13	10.489	72.453			
00:00:13	9.649	72.453			
00:00:13	8.891	72.453			
00:00:13	8.038	72.453			
00:00:13	7.290	72.458			
00:00:13	6.063	72.458			
00:00:13	5.173	72.458			
00:00:13	4.367	72.458			
00:00:13	3.431	72.458			
00:00:13	2.824	72.458			
00:00:13	1.965	72.458			
00:00:13	1.419	72.458			
00:00:13	0.999	72.458			
00:00:13	0.348	72.458			
00:00:13	0.305	72.458			
00:00:13	0.168	72.458			
00:00:13	0.162	72.458			
00:00:13	0.337	72.458			
00:00:13	0.139	72.458			
00:00:13	0.215	72.458			
00:00:13	0.270	72.458			
00:00:13	0.405	72.458			
00:00:13	0.791	72.458			
00:00:13	0.820	72.458			
00:00:13	1.099	72.458			
00:00:13	1.194	72.458			
00:00:13	1.188	72.458			
00:00:13	1.507	72.458			
00:00:14	1.416	72.458			
00:00:14	1.409	72.458			
00:00:14	1.354	72.458			
00:00:14	1.144	72.458			
00:00:14	1.239	72.458			
00:00:14	0.951	72.458			
00:00:14	0.658	72.458			
00:00:14	0.434	72.458			
00:00:14	0.047	72.458			
00:00:14	0.078	72.458			
00:00:14	-0.137	72.458			
00:00:14	-0.355	72.458			
00:00:14	-0.450	72.458			
00:00:14	-0.848	72.458			
00:00:14	-0.762	72.458			
00:00:14	-0.927	72.458			
00:00:14	-1.197	72.458			
00:00:14	-1.114	72.458			
00:00:14	-1.368	72.458			
00:00:14	-1.341	72.458			
00:00:14	-1.263	72.458			
00:00:14	-1.316	72.458			
00:00:14	-1.186	72.458			
00:00:14	-1.383	72.458			
00:00:14	-1.256	72.458			
00:00:14	-1.067	72.458			
00:00:14	-1.099	72.458			
00:00:14	-0.865	72.458			
00:00:14	-0.814	72.458			
00:00:14	-0.786	72.458			
00:00:14	-0.579	72.458			
00:00:14	-0.642	72.458			
00:00:14	-0.409	72.458			
00:00:14	-0.344	72.458			
00:00:14	-0.093	72.458			
00:00:14	0.201	72.458			
00:00:14	-0.011	72.458			
00:00:14	0.236	72.458			
00:00:14	0.267	72.458			
00:00:14	0.129	72.458			
00:00:14	0.263	72.458			
00:00:14	0.096	72.458			
00:00:14	0.108	72.458			
00:00:14	0.043	72.458			
00:00:14	-0.125	72.458			
00:00:14	-0.139	72.458			
00:00:14	-0.497	72.458			
00:00:14	-0.509	72.458			
00:00:14	-0.463	72.458			
00:00:14	-0.749	72.458			
00:00:14	-0.735	72.458			
00:00:14	-0.916	72.458			
00:00:14	-0.893	72.458			
00:00:14	-0.683	72.458			
00:00:14	-0.771	72.458			
00:00:14	-0.241	72.458			
00:00:14	0.393	72.458			
00:00:14	1.284	72.458			
00:00:14	2.680	72.458			
00:00:14	4.018	72.458			
00:00:14	6.023	72.458			
00:00:14	8.062	72.458			
00:00:14	9.919	72.458			
00:00:14	11.920	72.458			
00:00:14	13.449	72.458			
00:00:14	14.941	72.458			
00:00:14	16.073	72.458			
00:00:14	16.837	72.458			
00:00:14	17.629	72.458			
00:00:14	17.708	72.458			
00:00:14	17.720	72.458			
00:00:14	17.482	72.458			
00:00:14	16.758	72.458			
00:00:14	16.101	72.458			
00:00:14	15.262	72.458			
00:00:14	14.419	72.458			
00:00:14	13.776	72.458			
00:00:14	12.641	72.458			
00:00:14	11.741	72.458			
00:00:14	10.700	72.458			
00:00:14	9.773	72.453			
00:00:14	9.077	72.453			
00:00:14	7.998	72.453			
00:00:14	7.228	72.453			
00:00:14	6.432	72.458			
00:00:14	5.603	72.458			
00:00:14	4.941	72.458			
00:00:14	3.837	72.458			
00:00:14	2.994	72.458			
00:00:14	2.185	72.458			
00:00:14	1.357	72.458			
00:00:14	1.079	72.458			
00:00:14	0.626	72.458			
00:00:14	0.407	72.458			
00:00:14	0.492	72.458			
00:00:14	0.345	72.458			
00:00:14	0.580	72.458			
00:00:14	0.698	72.458			
00:00:14	0.919	72.458			
00:00:14	1.272	72.458			
00:00:14	1.263	72.458			
00:00:14	1.469	72.458			
00:00:14	1.382	72.458			
00:00:14	1.237	72.458			
00:00:14	1.390	72.458			
00:00:14	1.382	72.458			
00:00:14	1.616	72.458			
00:00:14	1.544	72.458			
00:00:14	1.403	72.458			
00:00:14	1.375	72.458			
00:00:14	0.998	72.458			
00:00:14	0.910	72.458			
00:00:14	0.726	72.458			
00:00:14	0.292	72.458			
00:00:14	0.136	72.458			
00:00:14	-0.157	72.458			
00:00:14	-0.305	72.458			
00:00:14	-0.420	72.458			
00:00:14	-0.759	72.458			
00:00:14	-0.646	72.458			
00:00:14	-0.738	72.458			
00:00:14	-0.837	72.458			
00:00:14	-0.917	72.458			
00:00:14	-1.292	72.458			
00:00:14	-1.222	72.458			
00:00:14	-1.264	72.458			
00:00:14	-1.418	72.458			
00:00:14	-1.328	72.458			
00:00:15	-1.565	72.458			
00:00:15	-1.358	72.458			
00:00:15	-1.233	72.458			
00:00:15	-1.303	72.458			
00:00:15	-1.081	72.458			
00:00:15	-1.155	72.458			
00:00:15	-0.948	72.458			
00:00:15	-0.667	72.458			
00:00:15	-0.659	72.458			
00:00:15	-0.506	72.458			
00:00:15	-0.508	72.458			
00:00:15	-0.372	72.458			
00:00:15	-0.170	72.458			
00:00:15	-0.154	72.458			
00:00:15	0.090	72.458			
00:00:15	0.109	72.458			
00:00:15	0.080	72.458			
00:00:15	0.160	72.458			
00:00:15	-0.013	72.458			
00:00:15	0.163	72.458			
00:00:15	0.180	72.458			
00:00:15	-0.006	72.458			
00:00:15	0.127	72.458			
00:00:15	-0.033	72.458			
00:00:15	-0.056	72.458			
00:00:15	-0.197	72.458			
00:00:15	-0.480	72.458			
00:00:15	-0.460	72.458			
00:00:15	-0.773	72.458			
00:00:15	-0.965	72.458			
00:00:15	-1.039	72.458			
00:00:15	-1.251	72.458			
00:00:15	-0.989	72.458			
00:00:15	-1.071	72.458			
00:00:15	-0.886	72.458			
00:00:15	-0.439	72.458			
00:00:15	0.119	72.458			
00:00:15	1.371	72.458			
00:00:15	2.447	72.458			
00:00:15	3.835	72.458			
00:00:15	5.767	72.458			
00:00:15	7.531	72.458			
00:00:15	9.660	72.458			
00:00:15	11.581	72.458			
00:00:15	13.199	72.458			
00:00:15	14.794	72.458			
00:00:15	15.787	72.458			
00:00:15	16.700	72.458			
00:00:15	17.199	72.458			
00:00:15	17.129	72.458			
00:00:15	16.982	72.458			
00:00:15	16.426	72.458			
00:00:15	16.193	72.458			
00:00:15	15.771	72.458			
00:00:15	14.760	72.458			
00:00:15	14.096	72.458			
00:00:15	13.242	72.458			
00:00:15	12.424	72.458			
00:00:15	11.600	72.458			
00:00:15	10.610	72.458			
00:00:15	9.942	70.459			
00:00:15	8.928	70.459			
00:00:15	7.931	70.459			
00:00:15	7.155	70.459			
00:00:15	6.197	70.464			
00:00:15	5.523	70.464			
00:00:15	4.632	70.464			
00:00:15	3.650	70.464			
00:00:15	2.923	70.464			
00:00:15	2.038	70.464			
00:00:15	1.545	70.464			
00:00:15	0.979	70.464			
00:00:15	0.300	70.464			
00:00:15	0.264	70.464			
00:00:15	-0.098	70.464			
00:00:15	-0.214	70.464			
00:00:15	-0.027	70.464			
00:00:15	0.078	70.464			
00:00:15	0.556	70.464			
00:00:15	0.533	70.464			
00:00:15	0.642	70.464			
00:00:15	1.130	70.464			
00:00:15	1.256	70.464			
00:00:15	1.676	70.464			
00:00:15	1.623	70.464			
00:00:15	1.593	70.464			
00:00:15	1.710	70.464			
00:00:15	1.472	70.464			
00:00:15	1.381	70.464			
00:00:15	1.113	70.464			
00:00:15	0.861	70.464			
00:00:15	0.855	70.464			
00:00:15	0.483	70.464			
00:00:15	0.331	70.464			
00:00:15	0.188	70.464			
00:00:15	-0.093	70.464			
00:00:15	-0.023	70.464			
00:00:15	-0.351	70.464			
00:00:15	-0.541	70.464			
00:00:15	-0.599	70.464			
00:00:15	-0.757	70.464			
00:00:15	-0.630	70.464			
00:00:15	-0.842	70.464			
00:00:15	-1.031	70.464			
00:00:15	-0.977	70.464			
00:00:15	-1.174	70.464			
00:00:15	-1.072	70.464			
00:00:15	-1.198	70.464			
00:00:15	-1.427	70.464			
00:00:15	-1.343	70.464			
00:00:15	-1.443	70.464			
00:00:15	-1.333	70.464			
00:00:15	-1.327	70.464			
00:00:15	-1.335	70.464			
00:00:15	-0.805	70.464			
00:00:15	-0.730	70.464			
00:00:15	-0.637	70.464			
00:00:15	-0.487	70.464			
00:00:15	-0.452	70.464			
00:00:15	-0.079	70.464			
00:00:15	-0.053	70.464			
00:00:15	0.048	70.464			
00:00:15	0.342	70.464			
00:00:15	0.432	70.464			
00:00:15	0.719	70.464			
00:00:15	0.713	70.464			
00:00:15	0.794	70.464			
00:00:15	0.921	70.464			
00:00:16	0.506	73.148			
00:00:16	0.447	73.148			
00:00:16	0.393	73.148			
00:00:16	0.396	73.148			
00:00:16	0.385	73.148			
00:00:16	-0.022	73.148			
00:00:16	-0.090	73.148			
00:00:16	-0.181	73.148			
00:00:16	-0.354	73.148			
00:00:16	-0.154	73.148			
00:00:16	-0.343	73.148			
00:00:16	-0.260	73.148			
00:00:16	-0.053	73.148			
00:00:16	-0.085	73.148			
00:00:16	0.298	73.148			
00:00:16	0.945	73.148			
00:00:16	2.082	73.148			
00:00:16	3.470	73.148			
00:00:16	4.845	73.148			
00:00:16	6.793	73.148			
00:00:16	8.645	73.148			
00:00:16	10.364	73.148			
00:00:16	12.081	73.148			
00:00:16	13.308	73.148			
00:00:16	14.628	73.148			
00:00:16	15.476	73.148			
00:00:16	15.791	73.148			
00:00:16	16.280	73.148			
00:00:16	16.209	73.148			
00:00:16	16.105	73.148			
00:00:16	15.673	73.148			
00:00:16	15.017	73.148			
00:00:16	14.456	73.148			
00:00:16	13.453	73.148			
00:00:16	12.641	73.148			
00:00:16	11.867	73.148			
00:00:16	10.894	90.353			
00:00:16	10.224	90.353			
00:00:16	9.434	90.353			
00:00:16	8.715	90.353			
00:00:16	7.972	90.358			
00:00:16	6.919	90.358			
00:00:16	6.327	90.358			
00:00:16	5.418	90.358			
00:00:16	4.510	90.358			
00:00:16	3.878	90.358			
00:00:16	2.778	90.358			
00:00:16	1.997	90.358			
00:00:16	1.348	90.358			
00:00:16	0.774	90.358			
00:00:16	0.815	90.358			
00:00:16	0.512	90.358			
00:00:16	0.435	90.358			
00:00:16	0.490	90.358			
00:00:16	0.522	90.358			
00:00:16	0.925	90.358			
00:00:16	0.963	90.358			
00:00:16	1.250	90.358			
00:00:16	1.600	90.358			
00:00:16	1.626	90.358			
00:00:16	1.932	90.358			
00:00:16	1.912	90.358			
00:00:16	1.966	90.358			
00:00:16	2.237	90.358			
00:00:16	1.989	90.358			
00:00:16	1.919	90.358			
00:00:16	1.799	90.358			
00:00:16	1.709	90.358			
00:00:16	1.623	90.358			
00:00:16	1.128	90.358			
00:00:16	0.946	90.358			
00:00:16	0.781	90.358			
00:00:16	0.569	90.358			
00:00:16	0.512	90.358			
00:00:16	0.137	90.358			
00:00:16	-0.027	90.358			
00:00:16	-0.058	90.358			
00:00:16	-0.428	90.358			
00:00:16	-0.504	90.358			
00:00:16	-0.896	90.358			
00:00:16	-0.933	90.358			
00:00:16	-0.761	90.358			
00:00:16	-0.852	90.358			
00:00:16	-0.632	90.358			
00:00:16	-0.745	90.358			
00:00:16	-0.863	90.358			
00:00:16	-0.772	90.358			
00:00:16	-1.009	90.358			
00:00:16	-0.824	90.358			
00:00:16	-0.788	90.358			
00:00:16	-0.668	90.358			
00:00:16	-0.324	90.358			
00:00:16	-0.348	90.358			
00:00:16	-0.099	90.358			
00:00:16	-0.091	90.358			
00:00:16	-0.098	90.358			
00:00:16	0.198	90.358			
00:00:16	0.059	90.358			
00:00:16	0.049	90.358			
00:00:16	0.108	90.358			
00:00:16	0.093	90.358			
00:00:16	0.412	90.358			
00:00:16	0.314	90.358			
00:00:16	0.353	90.358			
00:00:16	0.429	90.358			
00:00:16	0.174	90.358			
00:00:16	0.238	90.358			
00:00:16	0.119	90.358			
00:00:16	0.112	90.358			
00:00:16	0.267	90.358			
00:00:16	0.071	90.358			
00:00:16	-0.009	90.358			
00:00:16	-0.170	90.358			
00:00:16	-0.368	90.358			
00:00:16	-0.265	90.358			
00:00:16	-0.376	90.358			
00:00:16	0.196	90.358			
00:00:16	0.930	90.358			
00:00:16	1.565	90.358			
00:00:16	2.780	90.358			
00:00:16	4.099	90.358			
00:00:16	5.890	90.358			
00:00:16	7.585	90.358			
00:00:16	9.138	90.358			
00:00:16	10.842	90.358			
00:00:16	12.190	90.358			
00:00:16	13.536	90.358			
00:00:16	14.735	90.358			
00:00:17	15.332	90.358			
00:00:17	15.983	90.358			
00:00:17	15.970	90.358			
00:00:17	15.678	90.358			
00:00:17	15.597	90.358			
00:00:17	14.991	90.358			
00:00:17	14.511	90.358			
00:00:17	13.831	90.358			
00:00:17	12.892	90.358			
00:00:17	12.295	90.358			
00:00:17	11.388	90.358			
00:00:17	10.714	90.358			
00:00:17	9.834	75.294			
00:00:17	8.829	75.294			
00:00:17	8.361	75.294			
00:00:17	7.546	75.294			
00:00:17	6.755	75.299			
00:00:17	6.043	75.299			
00:00:17	5.085	75.299			
00:00:17	4.348	75.299			
00:00:17	3.312	75.299			
00:00:17	2.564	75.299			
00:00:17	2.033	75.299			
00:00:17	1.304	75.299			
00:00:17	0.933	75.299			
00:00:17	0.553	75.299			
00:00:17	0.317	75.299			
00:00:17	0.504	75.299			
00:00:17	0.450	75.299			
00:00:17	0.584	75.299			
00:00:17	0.590	75.299			
00:00:17	0.724	75.299			
00:00:17	1.056	75.299			
00:00:17	0.980	75.299			
00:00:17	1.210	75.299			
00:00:17	1.416	75.299			
00:00:17	1.493	75.299			
00:00:17	1.884	75.299			
00:00:17	1.648	75.299			
00:00:17	1.565	75.299			
00:00:17	1.663	75.299			
00:00:17	1.353	75.299			
00:00:17	1.290	75.299			
00:00:17	0.888	75.299			
00:00:17	0.627	75.299			
00:00:17	0.631	75.299			
00:00:17	0.304	75.299			
00:00:17	0.098	75.299			
00:00:17	-0.201	75.299			
00:00:17	-0.397	75.299			
00:00:17	-0.207	75.299			
00:00:17	-0.212	75.299			
00:00:17	-0.087	75.299			
00:00:17	-0.149	75.299			
00:00:17	-0.458	75.299			
00:00:17	-0.363	75.299			
00:00:17	-0.584	75.299			
00:00:17	-0.540	75.299			
00:00:17	-0.486	75.299			
00:00:17	-0.748	75.299			
00:00:17	-0.613	75.299			
00:00:17	-0.700	75.299			
00:00:17	-0.595	75.299			
00:00:17	-0.469	75.299			
00:00:17	-0.856	75.299			
00:00:17	-0.729	75.299			
00:00:17	-0.755	75.299			
00:00:17	-0.625	75.299			
00:00:17	-0.309	75.299			
00:00:17	-0.170	75.299			
00:00:17	0.273	75.299			
00:00:17	0.399	75.299			
00:00:17	0.424	75.299			
00:00:17	0.704	75.299			
00:00:17	0.738	75.299			
00:00:17	1.013	75.299			
00:00:17	1.028	75.299			
00:00:17	0.728	75.299			
00:00:17	0.868	75.299			
00:00:17	0.828	75.299			
00:00:17	0.864	75.299			
00:00:17	0.841	75.299			
00:00:17	0.411	75.299			
00:00:17	0.390	75.299			
00:00:17	0.150	75.299			
00:00:17	-0.008	75.299			
00:00:17	-0.186	75.299			
00:00:17	-0.457	75.299			
00:00:17	-0.288	75.299			
00:00:17	-0.444	75.299			
00:00:17	-0.533	75.299			
00:00:17	-0.237	75.299			
00:00:17	0.136	75.299			
00:00:17	1.196	75.299			
00:00:17	2.167	75.299			
00:00:17	3.243	75.299			
00:00:17	4.940	75.299			
00:00:17	6.667	75.299			
00:00:17	8.655	75.299			
00:00:17	10.538	75.299			
00:00:17	12.071	75.299			
00:00:17	13.796	75.299			
00:00:17	14.862	75.299			
00:00:17	15.735	75.299			
00:00:17	16.246	75.299			
00:00:17	16.277	75.299			
00:00:17	16.378	75.299			
00:00:17	16.006	75.299			
00:00:17	15.494	75.299			
00:00:17	15.254	75.299			
00:00:17	14.639	75.299			
00:00:17	14.061	75.299			
00:00:17	13.193	75.299			
00:00:17	12.345	75.299			
00:00:17	11.783	75.299			
00:00:17	11.032	75.299			
00:00:17	10.422	73.846			
00:00:17	9.651	73.846			
00:00:17	8.897	73.846			
00:00:17	8.374	73.846			
00:00:17	7.448	73.851			
00:00:17	6.807	73.851			
00:00:17	6.221	73.851			
00:00:17	5.123	73.851			
00:00:17	4.353	73.851			
00:00:17	3.386	73.851			
00:00:17	2.600	73.851			
00:00:17	1.972	73.851			
00:00:18	1.178	73.851			
00:00:18	0.821	73.851			
00:00:18	0.436	73.851			
00:00:18	0.263	73.851			
00:00:18	0.223	73.851			
00:00:18	0.075	73.851			
00:00:18	0.377	73.851			
00:00:18	0.474	73.851			
00:00:18	0.552	73.851			
00:00:18	0.780	73.851			
00:00:18	0.814	73.851			
00:00:18	1.197	73.851			
00:00:18	1.393	73.851			
00:00:18	1.307	73.851			
00:00:18	1.601	73.851			
00:00:18	1.545	73.851			
00:00:18	1.593	73.851			
00:00:18	1.532	73.851			
00:00:18	1.136	73.851			
00:00:18	1.024	73.851			
00:00:18	0.620	73.851			
00:00:18	0.340	73.851			
00:00:18	0.131	73.851			
00:00:18	-0.160	73.851			
00:00:18	-0.086	73.851			
00:00:18	-0.258	73.851			
00:00:18	-0.404	73.851			
00:00:18	-0.451	73.851			
00:00:18	-0.832	73.851			
00:00:18	-0.889	73.851			
00:00:18	-1.107	73.851			
00:00:18	-1.313	73.851			
00:00:18	-1.111	73.851			
00:00:18	-1.217	73.851			
00:00:18	-1.042	73.851			
00:00:18	-0.791	73.851			
00:00:18	-0.791	73.851			
00:00:18	-0.536	73.851			
00:00:18	-0.728	73.851			
00:00:18	-0.744	73.851			
00:00:18	-0.689	73.851			
00:00:18	-0.751	73.851			
00:00:18	-0.565	73.851			
00:00:18	-0.660	73.851			
00:00:18	-0.589	73.851			
00:00:18	-0.322	73.851			
00:00:18	-0.504	73.851			
00:00:18	-0.368	73.851			
00:00:18	-0.391	73.851			
00:00:18	-0.272	73.851			
00:00:18	0.083	73.851			
00:00:18	0.004	73.851			
00:00:18	0.180	73.851			
00:00:18	0.144	73.851			
00:00:18	0.124	73.851			
00:00:18	0.370	73.851			
00:00:18	0.226	73.851			
00:00:18	0.273	73.851			
00:00:18	0.276	73.851			
00:00:18	0.148	73.851			
00:00:18	0.241	73.851			
00:00:18	-0.083	73.851			
00:00:18	-0.157	73.851			
00:00:18	-0.100	73.851			
00:00:18	-0.435	73.851			
00:00:18	-0.420	73.851			
00:00:18	-0.721	73.851			
00:00:18	-0.816	73.851			
00:00:18	-0.672	73.851			
00:00:18	-0.745	73.851			
00:00:18	-0.413	73.851			
00:00:18	0.027	73.851			
00:00:18	0.877	73.851			
00:00:18	2.220	73.851			
00:00:18	3.505	73.851			
00:00:18	5.297	73.851			
00:00:18	7.045	73.851			
00:00:18	8.662	73.851			
00:00:18	10.536	73.851			
00:00:18	11.868	73.851			
00:00:18	13.184	73.851			
00:00:18	14.324	73.851			
00:00:18	15.038	73.851			
00:00:18	15.706	73.851			
00:00:18	15.681	73.851			
00:00:18	15.503	73.851			
00:00:18	15.227	73.851			
00:00:18	14.665	73.851			
00:00:18	14.348	73.851			
00:00:18	13.505	73.851			
00:00:18	12.560	73.851			
00:00:18	11.870	73.851			
00:00:18	11.026	73.851			
00:00:18	10.553	73.851			
00:00:18	9.773	73.851			
00:00:18	8.913	73.851			
00:00:18	8.381	71.776			
00:00:18	7.585	71.776			
00:00:18	6.899	71.776			
00:00:18	6.195	71.776			
00:00:18	5.415	71.781			
00:00:18	4.761	71.781			
00:00:18	3.924	71.781			
00:00:18	3.284	71.781			
00:00:18	2.493	71.781			
00:00:18	1.558	71.781			
00:00:18	1.195	71.781			
00:00:18	0.732	71.781			
00:00:18	0.514	71.781			
00:00:18	0.322	71.781			
00:00:18	-0.055	71.781			
00:00:18	0.016	71.781			
00:00:18	0.086	71.781			
00:00:18	0.281	71.781			
00:00:18	0.598	71.781			
00:00:18	0.512	71.781			
00:00:18	0.755	71.781			
00:00:18	0.747	71.781			
00:00:18	0.733	71.781			
00:00:18	0.908	71.781			
00:00:18	0.627	71.781			
00:00:18	0.756	71.781			
00:00:18	0.783	71.781			
00:00:18	0.619	71.781			
00:00:18	0.846	71.781			
00:00:18	0.582	71.781			
00:00:18	0.432	71.781			
00:00:18	0.218	71.781			
00:00:19	-0.003	71.781			
00:00:19	0.221	71.781			
00:00:19	-0.065	71.781			
00:00:19	-0.196	71.781			
00:00:19	-0.111	71.781			
00:00:19	-0.428	71.781			
00:00:19	-0.359	71.781			
00:00:19	-0.613	71.781			
00:00:19	-0.823	71.781			
00:00:19	-0.796	71.781			
00:00:19	-1.121	71.781			
00:00:19	-1.094	71.781			
00:00:19	-1.084	71.781			
00:00:19	-1.185	71.781			
00:00:19	-1.043	71.781			
00:00:19	-1.218	71.781			
00:00:19	-1.172	71.781			
00:00:19	-1.152	71.781			
00:00:19	-1.216	71.781			
00:00:19	-0.897	71.781			
00:00:19	-0.820	71.781			
00:00:19	-0.506	71.781			
00:00:19	-0.232	71.781			
00:00:19	-0.216	71.781			
00:00:19	-0.007	71.781			
00:00:19	-0.046	71.781			
00:00:19	-0.002	71.781			
00:00:19	0.099	71.781			
00:00:19	-0.011	71.781			
00:00:19	0.260	71.781			
00:00:19	0.169	71.781			
00:00:19	0.064	71.781			
00:00:19	0.076	71.781			
00:00:19	-0.190	71.781			
00:00:19	-0.086	71.781			
00:00:19	-0.172	71.781			
00:00:19	-0.378	71.781			
00:00:19	-0.305	71.781			
00:00:19	-0.464	71.781			
00:00:19	-0.313	71.781			
00:00:19	-0.273	71.781			
00:00:19	-0.600	71.781			
00:00:19	-0.528	71.781			
00:00:19	-0.674	71.781			
00:00:19	-0.629	71.781			
00:00:19	-0.589	71.781			
00:00:19	-0.811	71.781			
00:00:19	-0.642	71.781			
00:00:19	-0.575	71.781			
00:00:19	-0.168	71.781			
00:00:19	0.627	71.781			
00:00:19	1.200	71.781			
00:00:19	2.290	71.781			
00:00:19	3.510	71.781			
00:00:19	4.838	71.781			
00:00:19	6.565	71.781			
00:00:19	8.086	71.781			
00:00:19	9.889	71.781			
00:00:19	11.369	71.781			
00:00:19	12.520	71.781			
00:00:19	13.729	71.781			
00:00:19	14.381	71.781			
00:00:19	14.869	71.781			
00:00:19	14.908	71.781			
00:00:19	14.509	71.781			
00:00:19	14.469	71.781			
00:00:19	13.906	71.781			
00:00:19	13.456	71.781			
00:00:19	12.891	71.781			
00:00:19	11.997	71.781			
00:00:19	11.351	71.781			
00:00:19	10.616	71.781			
00:00:19	10.034	72.453			
00:00:19	9.615	72.453			
00:00:19	8.659	72.453			
00:00:19	8.074	72.453			
00:00:19	7.298	72.458			
00:00:19	6.529	72.458			
00:00:19	5.795	72.458			
00:00:19	4.606	72.458			
00:00:19	3.665	72.458			
00:00:19	2.751	72.458			
00:00:19	1.837	72.458			
00:00:19	1.256	72.458			
00:00:19	0.457	72.458			
00:00:19	-0.008	72.458			
00:00:19	-0.200	72.458			
00:00:19	-0.378	72.458			
00:00:19	-0.276	72.458			
00:00:19	-0.306	72.458			
00:00:19	-0.012	72.458			
00:00:19	0.479	72.458			
00:00:19	0.670	72.458			
00:00:19	1.018	72.458			
00:00:19	0.952	72.458			
00:00:19	0.966	72.458			
00:00:19	1.103	72.458			
00:00:19	1.020	72.458			
00:00:19	1.250	72.458			
00:00:19	1.149	72.458			
00:00:19	0.860	72.458			
00:00:19	0.913	72.458			
00:00:19	0.672	72.458			
00:00:19	0.645	72.458			
00:00:19	0.445	72.458			
00:00:19	0.039	72.458			
00:00:19	-0.073	72.458			
00:00:19	-0.476	72.458			
00:00:19	-0.672	72.458			
00:00:19	-0.734	72.458			
00:00:19	-0.932	72.458			
00:00:19	-0.704	72.458			
00:00:19	-0.817	72.458			
00:00:19	-0.884	72.458			
00:00:19	-0.910	72.458			
00:00:19	-1.294	72.458			
00:00:19	-1.229	72.458			
00:00:19	-1.302	72.458			
00:00:19	-1.351	72.458			
00:00:19	-1.186	72.458			
00:00:19	-1.361	72.458			
00:00:19	-1.109	72.458			
00:00:19	-1.065	72.458			
00:00:19	-1.226	72.458			
00:00:19	-1.181	72.458			
00:00:19	-1.493	72.458			
00:00:19	-1.379	72.458			
00:00:19	-1.223	72.458			
00:00:20	-1.303	72.458			
00:00:20	-0.927	72.458			
00:00:20	-0.896	72.458			
00:00:20	-0.771	72.458			
00:00:20	-0.497	72.458			
00:00:20	-0.616	72.458			
00:00:20	-0.415	72.458			
00:00:20	-0.472	72.458			
00:00:20	-0.300	72.458			
00:00:20	-0.074	72.458			
00:00:20	-0.175	72.458			
00:00:20	-0.027	72.458			
00:00:20	-0.105	72.458			
00:00:20	-0.219	72.458			
00:00:20	-0.008	72.458			
00:00:20	-0.318	72.458			
00:00:20	-0.320	72.458			
00:00:20	-0.470	72.458			
00:00:20	-0.624	72.458			
00:00:20	-0.548	72.458			
00:00:20	-0.954	72.458			
00:00:20	-1.048	72.458			
00:00:20	-0.935	72.458			
00:00:20	-1.108	72.458			
00:00:20	-0.977	72.458			
00:00:20	-1.033	72.458			
00:00:20	-0.766	72.458			
00:00:20	-0.101	72.458			
00:00:20	0.608	72.458			
00:00:20	1.954	72.458			
00:00:20	3.319	72.458			
00:00:20	5.013	72.458			
00:00:20	6.917	72.458			
00:00:20	8.430	72.458			
00:00:20	10.132	72.458			
00:00:20	11.400	72.458			
00:00:20	12.552	72.458			
00:00:20	13.811	72.458			
00:00:20	14.378	72.458			
00:00:20	14.853	72.458			
00:00:20	14.848	72.458			
00:00:20	14.578	72.458			
00:00:20	14.245	72.458			
00:00:20	13.345	72.458			
00:00:20	12.658	72.458			
00:00:20	11.948	72.458			
00:00:20	11.010	72.458			
00:00:20	10.405	72.458			
00:00:20	9.508	73.846			
00:00:20	8.747	73.846			
00:00:20	8.247	73.846			
00:00:20	7.477	73.846			
00:00:20	6.918	73.851			
00:00:20	6.176	73.851			
00:00:20	5.444	73.851			
00:00:20	4.981	73.851			
00:00:20	4.091	73.851			
00:00:20	3.507	73.851			
00:00:20	2.717	73.851			
00:00:20	1.796	73.851			
00:00:20	1.183	73.851			
00:00:20	0.394	73.851			
00:00:20	-0.082	73.851			
00:00:20	-0.630	73.851			
00:00:20	-1.022	73.851			
00:00:20	-0.919	73.851			
00:00:20	-1.174	73.851			
00:00:20	-1.062	73.851			
00:00:20	-0.806	73.851			
00:00:20	-0.799	73.851			
00:00:20	-0.422	73.851			
00:00:20	-0.197	73.851			
00:00:20	-0.018	73.851			
00:00:20	0.322	73.851			
00:00:20	0.370	73.851			
00:00:20	0.752	73.851			
00:00:20	0.761	73.851			
00:00:20	0.686	73.851			
00:00:20	0.645	73.851			
00:00:20	0.194	73.851			
00:00:20	0.251	73.851			
00:00:20	0.251	73.851			
00:00:20	0.017	73.851			
00:00:20	0.091	73.851			
00:00:20	-0.206	73.851			
00:00:20	-0.303	73.851			
00:00:20	-0.525	73.851			
00:00:20	-0.958	73.851			
00:00:20	-1.001	73.851			
00:00:20	-1.292	73.851			
00:00:20	-1.361	73.851			
00:00:20	-1.507	73.851			
00:00:20	-1.843	73.851			
00:00:20	-1.821	73.851			
00:00:20	-2.064	73.851			
00:00:20	-2.322	73.851			
00:00:20	-2.295	73.851			
00:00:20	-2.587	73.851			
00:00:20	-2.335	73.851			
00:00:20	-2.321	73.851			
00:00:20	-2.331	73.851			
00:00:20	-1.971	73.851			
00:00:20	-1.966	73.851			
00:00:20	-1.725	73.851			
00:00:20	-1.623	73.851			
00:00:20	-1.687	73.851			
00:00:20	-1.402	73.851			
00:00:20	-1.424	73.851			
00:00:20	-1.098	73.851			
00:00:20	-0.966	73.851			
00:00:20	-1.117	73.851			
00:00:20	-1.007	73.851			
00:00:20	-0.989	73.851			
00:00:20	-0.903	73.851			
00:00:20	-0.804	73.851			
00:00:20	-0.992	73.851			
00:00:20	-0.882	73.851			
00:00:20	-1.040	73.851			
00:00:20	-1.048	73.851			
00:00:20	-0.875	73.851			
00:00:20	-0.990	73.851			
00:00:20	-0.873	73.851			
00:00:20	-1.005	73.851			
00:00:20	-1.109	73.851			
00:00:20	-0.882	73.851			
00:00:20	-1.051	73.851			
00:00:20	-1.093	73.851			
00:00:20	-1.336	73.851			
00:00:21	-1.490	73.851			
00:00:21	-1.325	73.851			
00:00:21	-1.595	73.851			
00:00:21	-1.695	73.851			
00:00:21	-1.567	73.851			
00:00:21	-1.490	73.851			
00:00:21	-0.639	73.851			
00:00:21	0.321	73.851			
00:00:21	1.673	73.851			
00:00:21	3.253	73.851			
00:00:21	4.760	73.851			
00:00:21	6.744	73.851			
00:00:21	8.467	73.851			
00:00:21	10.033	73.851			
00:00:21	11.636	73.851			
00:00:21	12.747	73.851			
00:00:21	13.849	73.851			
00:00:21	14.471	73.851			
00:00:21	14.778	73.851			
00:00:21	15.193	73.851			
00:00:21	14.869	73.851			
00:00:21	14.562	73.851			
00:00:21	14.155	73.851			
00:00:21	13.497	73.851			
00:00:21	13.064	73.851			
00:00:21	12.163	73.851			
00:00:21	11.506	73.851			
00:00:21	10.907	73.851			
00:00:21	9.905	71.111			
00:00:21	9.209	71.111			
00:00:21	8.258	71.111			
00:00:21	7.423	71.111			
00:00:21	6.642	71.116			
00:00:21	5.753	71.116			
00:00:21	5.256	71.116			
00:00:21	4.426	71.116			
00:00:21	3.463	71.116			
00:00:21	2.807	71.116			
00:00:21	1.935	71.116			
00:00:21	1.299	71.116			
00:00:21	0.550	71.116			
00:00:21	-0.096	71.116			
00:00:21	-0.276	71.116			
00:00:21	-0.764	71.116			
00:00:21	-0.806	71.116			
00:00:21	-0.856	71.116			
00:00:21	-1.014	71.116			
00:00:21	-1.010	71.116			
00:00:21	-1.019	71.116			
00:00:21	-0.743	71.116			
00:00:21	-0.518	71.116			
00:00:21	-0.495	71.116			
00:00:21	-0.129	71.116			
00:00:21	-0.196	71.116			
00:00:21	-0.253	71.116			
00:00:21	-0.077	71.116			
00:00:21	-0.414	71.116			
00:00:21	-0.360	71.116			
00:00:21	-0.340	71.116			
00:00:21	-0.402	71.116			
00:00:21	-0.457	71.116			
00:00:21	-0.847	71.116			
00:00:21	-1.068	71.116			
00:00:21	-1.270	71.116			
00:00:21	-1.450	71.116			
00:00:21	-1.415	71.116			
00:00:21	-1.697	71.116			
00:00:21	-1.719	71.116			
00:00:21	-1.751	71.116			
00:00:21	-1.927	71.116			
00:00:21	-1.851	71.116			
00:00:21	-2.056	71.116			
00:00:21	-2.059	71.116			
00:00:21	-2.108	71.116			
00:00:21	-2.285	71.116			
00:00:21	-2.213	71.116			
00:00:21	-2.309	71.116			
00:00:21	-2.474	71.116			
00:00:21	-2.505	71.116			
00:00:21	-2.764	71.116			
00:00:21	-2.569	71.116			
00:00:21	-2.586	71.116			
00:00:21	-2.711	71.116			
00:00:21	-2.492	71.116			
00:00:21	-2.544	71.116			
00:00:21	-2.216	71.116			
00:00:21	-2.060	71.116			
00:00:21	-2.181	71.116			
00:00:21	-1.877	71.116			
00:00:21	-1.841	71.116			
00:00:21	-1.732	71.116			
00:00:21	-1.608	71.116			
00:00:21	-1.662	71.116			
00:00:21	-1.309	71.116			
00:00:21	-1.203	71.116			
00:00:21	-1.031	71.116			
00:00:21	-1.015	71.116			
00:00:21	-1.225	71.116			
00:00:21	-1.050	71.116			
00:00:21	-1.193	71.116			
00:00:21	-1.429	71.116			
00:00:21	-1.523	71.116			
00:00:21	-1.745	71.116			
00:00:21	-1.610	71.116			
00:00:21	-1.749	71.116			
00:00:21	-1.982	71.116			
00:00:21	-2.002	71.116			
00:00:21	-2.373	71.116			
00:00:21	-2.427	71.116			
00:00:21	-2.523	71.116			
00:00:21	-2.625	71.116			
00:00:21	-2.433	71.116			
00:00:21	-2.619	71.116			
00:00:21	-2.260	71.116			
00:00:21	-1.701	71.116			
00:00:21	-1.191	71.116			
00:00:21	-0.040	71.116			
00:00:21	1.274	71.116			
00:00:21	2.934	71.116			
00:00:21	4.874	71.116			
00:00:21	6.720	71.116			
00:00:21	8.892	71.116			
00:00:21	10.648	71.116			
00:00:21	12.015	71.116			
00:00:21	13.206	71.116			
00:00:21	13.845	71.116			
00:00:21	14.466	71.116			
00:00:21	14.857	71.116			
00:00:22	14.877	71.116			
00:00:22	14.915	71.116			
00:00:22	14.431	71.116			
00:00:22	14.095	71.116			
00:00:22	13.506	71.116			
00:00:22	12.585	71.116			
00:00:22	12.094	71.116			
00:00:22	11.213	71.116			
00:00:22	10.541	70.459			
00:00:22	9.890	70.459			
00:00:22	8.967	70.459			
00:00:22	8.357	70.459			
00:00:22	7.547	70.464			
00:00:22	6.698	70.464			
00:00:22	6.008	70.464			
00:00:22	5.138	70.464			
00:00:22	4.549	70.464			
00:00:22	3.492	70.464			
00:00:22	2.207	70.464			
00:00:22	1.405	70.464			
00:00:22	0.373	70.464			
00:00:22	-0.267	70.464			
00:00:22	-0.934	70.464			
00:00:22	-1.561	70.464			
00:00:22	-1.595	70.464			
00:00:22	-2.024	70.464			
00:00:22	-2.131	70.464			
00:00:22	-1.894	70.464			
00:00:22	-1.759	70.464			
00:00:22	-1.374	70.464			
00:00:22	-1.165	70.464			
00:00:22	-0.843	70.464			
00:00:22	-0.534	70.464			
00:00:22	-0.476	70.464			
00:00:22	-0.094	70.464			
00:00:22	0.002	70.464			
00:00:22	-0.014	70.464			
00:00:22	-0.004	70.464			
00:00:22	-0.265	70.464			
00:00:22	-0.163	70.464			
00:00:22	-0.341	70.464			
00:00:22	-0.603	70.464			
00:00:22	-0.642	70.464			
00:00:22	-1.148	70.464			
00:00:22	-1.191	70.464			
00:00:22	-1.253	70.464			
00:00:22	-1.548	70.464			
00:00:22	-1.558	70.464			
00:00:22	-1.888	70.464			
00:00:22	-2.049	70.464			
00:00:22	-2.244	70.464			
00:00:22	-2.577	70.464			
00:00:22	-2.487	70.464			
00:00:22	-2.684	70.464			
00:00:22	-2.802	70.464			
00:00:22	-2.659	70.464			
00:00:22	-2.733	70.464			
00:00:22	-2.483	70.464			
00:00:22	-2.590	70.464			
00:00:22	-2.696	70.464			
00:00:22	-2.611	70.464			
00:00:22	-2.812	70.464			
00:00:22	-2.727	70.464			
00:00:22	-2.690	70.464			
00:00:22	-2.807	70.464			
00:00:22	-2.786	70.464			
00:00:22	-2.973	70.464			
00:00:22	-2.736	70.464			
00:00:22	-2.661	70.464			
00:00:22	-2.764	70.464			
00:00:22	-2.343	70.464			
00:00:22	-2.218	70.464			
00:00:22	-1.908	70.464			
00:00:22	-1.683	70.464			
00:00:22	-1.864	70.464			
00:00:22	-1.602	70.464			
00:00:22	-1.700	70.464			
00:00:22	-1.681	70.464			
00:00:22	-1.497	70.464			
00:00:22	-1.633	70.464			
00:00:22	-1.628	70.464			
00:00:22	-1.892	70.464			
00:00:22	-1.968	70.464			
00:00:22	-1.794	70.464			
00:00:22	-2.018	70.464			
00:00:22	-1.874	70.464			
00:00:22	-1.853	70.464			
00:00:22	-1.953	70.464			
00:00:22	-1.906	70.464			
00:00:22	-2.290	70.464			
00:00:22	-2.471	70.464			
00:00:22	-2.618	70.464			
00:00:22	-2.799	70.464			
00:00:22	-2.579	70.464			
00:00:22	-2.572	70.464			
00:00:22	-2.313	70.464			
00:00:22	-1.680	70.464			
00:00:22	-0.788	70.464			
00:00:22	0.635	70.464			
00:00:22	2.055	70.464			
00:00:22	3.701	70.464			
00:00:22	5.661	70.464			
00:00:22	7.517	70.464			
00:00:22	9.691	70.464			
00:00:22	11.218	70.464			
00:00:22	12.409	70.464			
00:00:22	13.616	70.464			
00:00:22	14.357	70.464			
00:00:22	15.056	70.464			
00:00:22	15.120	70.464			
00:00:22	14.835	70.464			
00:00:22	14.663	70.464			
00:00:22	13.795	70.464			
00:00:22	12.987	70.464			
00:00:22	12.123	70.464			
00:00:22	11.123	70.464			
00:00:22	10.477	70.464			
00:00:22	9.480	70.464			
00:00:22	8.647	70.464			
00:00:22	7.795	70.464			
00:00:22	6.749	70.459			
00:00:22	6.032	70.459			
00:00:22	5.167	70.459			
00:00:22	4.379	70.459			
00:00:22	3.811	70.464			
00:00:22	2.884	70.464			
00:00:22	2.226	70.464			
00:00:22	1.396	70.464			
00:00:23	0.520	70.464			
00:00:23	0.039	70.464			
00:00:23	-0.769	70.464			
00:00:23	-1.097	70.464			
00:00:23	-1.422	70.464			
00:00:23	-1.703	70.464			
00:00:23	-1.628	70.464			
00:00:23	-1.801	70.464			
00:00:23	-1.619	70.464			
00:00:23	-1.505	70.464			
00:00:23	-1.440	70.464			
00:00:23	-1.161	70.464			
00:00:23	-1.187	70.464			
00:00:23	-0.938	70.464			
00:00:23	-0.483	70.464			
00:00:23	-0.426	70.464			
00:00:23	-0.107	70.464			
00:00:23	-0.307	70.464			
00:00:23	-0.370	70.464			
00:00:23	-0.196	70.464			
00:00:23	-0.495	70.464			
00:00:23	-0.430	70.464			
00:00:23	-0.547	70.464			
00:00:23	-0.762	70.464			
00:00:23	-0.796	70.464			
00:00:23	-1.169	70.464			
00:00:23	-1.263	70.464			
00:00:23	-1.491	70.464			
00:00:23	-1.928	70.464			
00:00:23	-1.951	70.464			
00:00:23	-2.335	70.464			
00:00:23	-2.523	70.464			
00:00:23	-2.605	70.464			
00:00:23	-2.834	70.464			
00:00:23	-2.712	70.464			
00:00:23	-2.977	70.464			
00:00:23	-3.234	70.464			
00:00:23	-3.215	70.464			
00:00:23	-3.357	70.464			
00:00:23	-3.156	70.464			
00:00:23	-3.165	70.464			
00:00:23	-3.276	70.464			
00:00:23	-3.176	70.464			
00:00:23	-3.309	70.464			
00:00:23	-3.113	70.464			
00:00:23	-3.079	70.464			
00:00:23	-3.194	70.464			
00:00:23	-2.937	70.464			
00:00:23	-2.893	70.464			
00:00:23	-2.638	70.464			
00:00:23	-2.519	70.464			
00:00:23	-2.390	70.464			
00:00:23	-1.940	70.464			
00:00:23	-1.834	70.464			
00:00:23	-1.647	70.464			
00:00:23	-1.416	70.464			
00:00:23	-1.526	70.464			
00:00:23	-1.368	70.464			
00:00:23	-1.459	70.464			
00:00:23	-1.661	70.464			
00:00:23	-1.572	70.464			
00:00:23	-1.854	70.464			
00:00:23	-1.908	70.464			
00:00:23	-2.136	70.464			
00:00:23	-2.400	70.464			
00:00:23	-2.313	70.464			
00:00:23	-2.464	70.464			
00:00:23	-2.512	70.464			
00:00:23	-2.734	70.464			
00:00:23	-2.917	70.464			
00:00:23	-2.763	70.464			
00:00:23	-2.795	70.464			
00:00:23	-2.620	70.464			
00:00:23	-2.434	70.464			
00:00:23	-2.174	70.464			
00:00:23	-1.247	70.464			
00:00:23	-0.269	70.464			
00:00:23	1.209	70.464			
00:00:23	3.006	70.464			
00:00:23	4.747	70.464			
00:00:23	6.972	70.464			
00:00:23	8.794	70.464			
00:00:23	10.521	70.464			
00:00:23	12.125	70.464			
00:00:23	13.066	70.464			
00:00:23	13.998	70.464			
00:00:23	14.589	70.464			
00:00:23	14.840	70.464			
00:00:23	14.929	70.464			
00:00:23	14.464	70.464			
00:00:23	14.099	70.464			
00:00:23	13.544	70.464			
00:00:23	12.744	70.464			
00:00:23	12.108	70.464			
00:00:23	11.286	70.464			
00:00:23	10.464	70.464			
00:00:23	9.655	71.776			
00:00:23	8.643	71.776			
00:00:23	7.982	71.776			
00:00:23	7.140	71.776			
00:00:23	6.515	71.781			
00:00:23	5.712	71.781			
00:00:23	4.602	71.781			
00:00:23	3.823	71.781			
00:00:23	2.824	71.781			
00:00:23	1.694	71.781			
00:00:23	0.943	71.781			
00:00:23	-0.070	71.781			
00:00:23	-0.825	71.781			
00:00:23	-1.321	71.781			
00:00:23	-1.813	71.781			
00:00:23	-1.972	71.781			
00:00:23	-2.362	71.781			
00:00:23	-2.354	71.781			
00:00:23	-2.333	71.781			
00:00:23	-2.322	71.781			
00:00:23	-1.899	71.781			
00:00:23	-1.869	71.781			
00:00:23	-1.482	71.781			
00:00:23	-1.008	71.781			
00:00:23	-0.936	71.781			
00:00:23	-0.513	71.781			
00:00:23	-0.560	71.781			
00:00:23	-0.626	71.781			
00:00:23	-0.526	71.781			
00:00:23	-0.749	71.781			
00:00:23	-0.646	71.781			
00:00:23	-0.906	71.781			
00:00:24	-1.216	71.781			
00:00:24	-1.233	71.781			
00:00:24	-1.553	71.781			
00:00:24	-1.680	71.781			
00:00:24	-1.903	71.781			
00:00:24	-2.221	71.781			
00:00:24	-2.162	71.781			
00:00:24	-2.469	71.781			
00:00:24	-2.690	71.781			
00:00:24	-3.114	71.781			
00:00:24	-3.339	71.781			
00:00:24	-3.148	71.781			
00:00:24	-3.330	71.781			
00:00:24	-3.482	71.781			
00:00:24	-3.500	71.781			
00:00:24	-3.763	71.781			
00:00:24	-3.611	71.781			
00:00:24	-3.621	71.781			
00:00:24	-3.564	71.781			
00:00:24	-3.266	71.781			
00:00:24	-3.152	71.781			
00:00:24	-2.868	71.781			
00:00:24	-3.060	71.781			
00:00:24	-3.217	71.781			
00:00:24	-3.080	71.781			
00:00:24	-3.280	71.781			
00:00:24	-3.326	71.781			
00:00:24	-3.400	71.781			
00:00:24	-3.471	71.781			
00:00:24	-3.043	71.781			
00:00:24	-2.883	71.781			
00:00:24	-2.590	71.781			
00:00:24	-2.365	71.781			
00:00:24	-2.493	71.781			
00:00:24	-2.341	71.781			
00:00:24	-2.401	71.781			
00:00:24	-2.077	71.781			
00:00:24	-1.878	71.781			
00:00:24	-2.073	71.781			
00:00:24	-1.904	71.781			
00:00:24	-2.015	71.781			
00:00:24	-2.014	71.781			
00:00:24	-1.801	71.781			
00:00:24	-1.859	71.781			
00:00:24	-1.795	71.781			
00:00:24	-1.975	71.781			
00:00:24	-2.180	71.781			
00:00:24	-2.266	71.781			
00:00:24	-2.745	71.781			
00:00:24	-2.857	71.781			
00:00:24	-2.882	71.781			
00:00:24	-3.018	71.781			
00:00:24	-2.822	71.781			
00:00:24	-2.747	71.781			
00:00:24	-2.355	71.781			
00:00:24	-1.751	71.781			
00:00:24	-1.014	71.781			
00:00:24	0.540	71.781			
00:00:24	2.282	71.781			
00:00:24	4.470	71.781			
00:00:24	6.687	71.781			
00:00:24	8.650	71.781			
00:00:24	10.806	71.781			
00:00:24	12.531	71.781			
00:00:24	13.954	71.781			
00:00:24	15.340	71.781			
00:00:24	15.882	71.781			
00:00:24	16.202	71.781			
00:00:24	16.169	71.781			
00:00:24	15.899	71.781			
00:00:24	15.689	71.781			
00:00:24	14.993	71.781			
00:00:24	14.488	71.781			
00:00:24	13.688	71.781			
00:00:24	12.601	71.781			
00:00:24	11.778	71.781			
00:00:24	10.565	71.111			
00:00:24	9.627	71.111			
00:00:24	8.843	71.111			
00:00:24	7.887	71.111			
00:00:24	7.122	71.116			
00:00:24	6.078	71.116			
00:00:24	5.222	71.116			
00:00:24	4.453	71.116			
00:00:24	3.471	71.116			
00:00:24	2.907	71.116			
00:00:24	1.991	71.116			
00:00:24	0.926	71.116			
00:00:24	0.146	71.116			
00:00:24	-0.776	71.116			
00:00:24	-1.199	71.116			
00:00:24	-1.817	71.116			
00:00:24	-2.491	71.116			
00:00:24	-2.567	71.116			
00:00:24	-2.787	71.116			
00:00:24	-2.616	71.116			
00:00:24	-2.443	71.116			
00:00:24	-2.376	71.116			
00:00:24	-2.137	71.116			
00:00:24	-2.092	71.116			
00:00:24	-1.888	71.116			
00:00:24	-1.553	71.116			
00:00:24	-1.516	71.116			
00:00:24	-1.146	71.116			
00:00:24	-1.227	71.116			
00:00:24	-1.276	71.116			
00:00:24	-1.166	71.116			
00:00:24	-1.212	71.116			
00:00:24	-1.002	71.116			
00:00:24	-1.133	71.116			
00:00:24	-1.374	71.116			
00:00:24	-1.423	71.116			
00:00:24	-1.764	71.116			
00:00:24	-1.776	71.116			
00:00:24	-1.856	71.116			
00:00:24	-2.102	71.116			
00:00:24	-2.140	71.116			
00:00:24	-2.676	71.116			
00:00:24	-2.866	71.116			
00:00:24	-2.926	71.116			
00:00:24	-3.300	71.116			
00:00:24	-3.176	71.116			
00:00:24	-3.429	71.116			
00:00:24	-3.626	71.116			
00:00:24	-3.703	71.116			
00:00:24	-3.974	71.116			
00:00:24	-3.707	71.116			
00:00:24	-3.665	71.116			
00:00:25	-3.777	71.116			
00:00:25	-3.655	71.116			
00:00:25	-3.879	71.116			
00:00:25	-3.630	71.116			
00:00:25	-3.472	71.116			
00:00:25	-3.322	71.116			
00:00:25	-3.014	71.116			
00:00:25	-3.156	71.116			
00:00:25	-2.971	71.116			
00:00:25	-2.718	71.116			
00:00:25	-2.527	71.116			
00:00:25	-2.107	71.116			
00:00:25	-2.313	71.116			
00:00:25	-2.322	71.116			
00:00:25	-2.293	71.116			
00:00:25	-2.468	71.116			
00:00:25	-2.080	71.116			
00:00:25	-1.991	71.116			
00:00:25	-1.940	71.116			
00:00:25	-1.987	71.116			
00:00:25	-2.303	71.116			
00:00:25	-2.154	71.116			
00:00:25	-2.284	71.116			
00:00:25	-2.427	71.116			
00:00:25	-2.413	71.116			
00:00:25	-2.703	71.116			
00:00:25	-2.701	71.116			
00:00:25	-2.816	71.116			
00:00:25	-3.088	71.116			
00:00:25	-3.176	71.116			
00:00:25	-3.475	71.116			
00:00:25	-3.419	71.116			
00:00:25	-3.404	71.116			
00:00:25	-3.508	71.116			
00:00:25	-3.172	71.116			
00:00:25	-2.943	71.116			
00:00:25	-2.154	71.116			
00:00:25	-0.857	71.116			
00:00:25	0.467	71.116			
00:00:25	2.307	71.116			
00:00:25	4.109	71.116			
00:00:25	6.274	71.116			
00:00:25	8.480	71.116			
00:00:25	10.305	71.116			
00:00:25	12.164	71.116			
00:00:25	13.541	71.116			
00:00:25	14.733	71.116			
00:00:25	15.773	71.116			
00:00:25	16.186	71.116			
00:00:25	16.419	71.116			
00:00:25	16.107	71.116			
00:00:25	15.517	71.116			
00:00:25	15.224	71.116			
00:00:25	14.378	71.116			
00:00:25	13.402	71.116			
00:00:25	12.305	71.116			
00:00:25	11.204	71.116			
00:00:25	10.486	71.116			
00:00:25	9.411	71.116			
00:00:25	8.548	71.116			
00:00:25	7.628	70.459			
00:00:25	6.549	70.459			
00:00:25	5.813	70.459			
00:00:25	4.899	70.459			
00:00:25	4.072	70.464			
00:00:25	3.115	70.464			
00:00:25	1.961	70.464			
00:00:25	1.281	70.464			
00:00:25	0.463	70.464			
00:00:25	-0.412	70.464			
00:00:25	-1.064	70.464			
00:00:25	-1.785	70.464			
00:00:25	-2.095	70.464			
00:00:25	-2.408	70.464			
00:00:25	-2.817	70.464			
00:00:25	-2.759	70.464			
00:00:25	-2.869	70.464			
00:00:25	-2.595	70.464			
00:00:25	-2.223	70.464			
00:00:25	-2.132	70.464			
00:00:25	-1.694	70.464			
00:00:25	-1.562	70.464			
00:00:25	-1.292	70.464			
00:00:25	-1.153	70.464			
00:00:25	-1.224	70.464			
00:00:25	-0.903	70.464			
00:00:25	-0.814	70.464			
00:00:25	-0.804	70.464			
00:00:25	-0.735	70.464			
00:00:25	-1.209	70.464			
00:00:25	-1.256	70.464			
00:00:25	-1.467	70.464			
00:00:25	-1.935	70.464			
00:00:25	-2.030	70.464			
00:00:25	-2.336	70.464			
00:00:25	-2.422	70.464			
00:00:25	-2.594	70.464			
00:00:25	-2.917	70.464			
00:00:25	-2.878	70.464			
00:00:25	-3.151	70.464			
00:00:25	-3.257	70.464			
00:00:25	-3.288	70.464			
00:00:25	-3.534	70.464			
00:00:25	-3.478	70.464			
00:00:25	-3.619	70.464			
00:00:25	-3.539	70.464			
00:00:25	-3.318	70.464			
00:00:25	-3.433	70.464			
00:00:25	-3.290	70.464			
00:00:25	-3.366	70.464			
00:00:25	-3.353	70.464			
00:00:25	-3.105	70.464			
00:00:25	-3.334	70.464			
00:00:25	-3.272	70.464			
00:00:25	-3.274	70.464			
00:00:25	-3.249	70.464			
00:00:25	-3.121	70.464			
00:00:25	-3.190	70.464			
00:00:25	-3.093	70.464			
00:00:25	-3.050	70.464			
00:00:25	-3.094	70.464			
00:00:25	-2.747	70.464			
00:00:25	-2.730	70.464			
00:00:25	-2.704	70.464			
00:00:25	-2.506	70.464			
00:00:25	-2.635	70.464			
00:00:25	-2.281	70.464			
00:00:25	-2.295	70.464			
00:00:26	-2.254	70.464			
00:00:26	-2.098	70.464			
00:00:26	-2.071	70.464			
00:00:26	-1.804	70.464			
00:00:26	-1.862	70.464			
00:00:26	-2.025	70.464			
00:00:26	-1.908	70.464			
00:00:26	-2.287	70.464			
00:00:26	-2.355	70.464			
00:00:26	-2.505	70.464			
00:00:26	-2.914	70.464			
00:00:26	-3.004	70.464			
00:00:26	-3.205	70.464			
00:00:26	-3.127	70.464			
00:00:26	-2.958	70.464			
00:00:26	-2.954	70.464			
00:00:26	-2.310	70.464			
00:00:26	-1.364	70.464			
00:00:26	0.192	70.464			
00:00:26	2.214	70.464			
00:00:26	4.046	70.464			
00:00:26	6.225	70.464			
00:00:26	8.246	70.464			
00:00:26	10.406	70.464			
00:00:26	12.595	70.464			
00:00:26	13.944	70.464			
00:00:26	15.035	70.464			
00:00:26	15.654	70.464			
00:00:26	15.971	70.464			
00:00:26	16.153	70.464			
00:00:26	15.743	70.464			
00:00:26	15.509	70.464			
00:00:26	15.024	70.464			
00:00:26	14.048	70.464			
00:00:26	13.274	70.464			
00:00:26	12.174	70.464			
00:00:26	11.278	70.464			
00:00:26	10.290	70.464			
00:00:26	9.184	70.464			
00:00:26	8.361	70.464			
00:00:26	7.333	71.111			
00:00:26	6.545	71.111			
00:00:26	5.652	71.111			
00:00:26	4.306	71.111			
00:00:26	3.268	71.116			
00:00:26	2.108	71.116			
00:00:26	1.099	71.116			
00:00:26	0.195	71.116			
00:00:26	-0.972	71.116			
00:00:26	-1.504	71.116			
00:00:26	-2.041	71.116			
00:00:26	-2.520	71.116			
00:00:26	-2.589	71.116			
00:00:26	-2.841	71.116			
00:00:26	-2.675	71.116			
00:00:26	-2.459	71.116			
00:00:26	-2.241	71.116			
00:00:26	-1.727	71.116			
00:00:26	-1.387	71.116			
00:00:26	-0.905	71.116			
00:00:26	-0.557	71.116			
00:00:26	-0.603	71.116			
00:00:26	-0.313	71.116			
00:00:26	-0.268	71.116			
00:00:26	-0.145	71.116			
00:00:26	0.057	71.116			
00:00:26	-0.202	71.116			
00:00:26	-0.255	71.116			
00:00:26	-0.543	71.116			
00:00:26	-0.701	71.116			
00:00:26	-0.655	71.116			
00:00:26	-1.184	71.116			
00:00:26	-1.457	71.116			
00:00:26	-1.803	71.116			
00:00:26	-2.141	71.116			
00:00:26	-2.088	71.116			
00:00:26	-2.131	71.116			
00:00:26	-2.015	71.116			
00:00:26	-1.955	71.116			
00:00:26	-2.304	71.116			
00:00:26	-2.386	71.116			
00:00:26	-2.716	71.116			
00:00:26	-2.752	71.116			
00:00:26	-2.851	71.116			
00:00:26	-3.264	71.116			
00:00:26	-3.224	71.116			
00:00:26	-3.281	71.116			
00:00:26	-3.335	71.116			
00:00:26	-3.306	71.116			
00:00:26	-3.504	71.116			
00:00:26	-3.238	71.116			
00:00:26	-3.174	71.116			
00:00:26	-3.143	71.116			
00:00:26	-2.939	71.116			
00:00:26	-2.966	71.116			
00:00:26	-2.539	71.116			
00:00:26	-2.471	71.116			
00:00:26	-2.624	71.116			
00:00:26	-2.429	71.116			
00:00:26	-2.490	71.116			
00:00:26	-2.262	71.116			
00:00:26	-2.027	71.116			
00:00:26	-1.995	71.116			
00:00:26	-1.742	71.116			
00:00:26	-1.943	71.116			
00:00:26	-1.970	71.116			
00:00:26	-1.904	71.116			
00:00:26	-2.048	71.116			
00:00:26	-1.821	71.116			
00:00:26	-1.796	71.116			
00:00:26	-1.828	71.116			
00:00:26	-1.785	71.116			
00:00:26	-2.134	71.116			
00:00:26	-2.208	71.116			
00:00:26	-2.304	71.116			
00:00:26	-2.575	71.116			
00:00:26	-2.437	71.116			
00:00:26	-2.494	71.116			
00:00:26	-2.177	71.116			
00:00:26	-1.757	71.116			
00:00:26	-1.377	71.116			
00:00:26	-0.317	71.116			
00:00:26	0.858	71.116			
00:00:26	2.749	71.116			
00:00:26	4.823	71.116			
00:00:26	6.763	71.116			
00:00:26	8.986	71.116			
00:00:26	10.713	71.116			
00:00:27	12.350	71.116			
00:00:27	13.744	71.116			
00:00:27	14.621	71.116			
00:00:27	15.426	71.116			
00:00:27	15.770	71.116			
00:00:27	15.827	71.116			
00:00:27	15.715	71.116			
00:00:27	15.098	71.116			
00:00:27	14.413	71.116			
00:00:27	13.613	71.116			
00:00:27	12.762	71.116			
00:00:27	12.065	71.116			
00:00:27	10.946	71.116			
00:00:27	9.966	71.116			
00:00:27	9.049	71.116			
00:00:27	7.915	71.116			
00:00:27	7.237	73.846			
00:00:27	6.298	73.846			
00:00:27	5.397	73.846			
00:00:27	4.510	73.846			
00:00:27	3.405	73.851			
00:00:27	2.724	73.851			
00:00:27	1.795	73.851			
00:00:27	0.908	73.851			
00:00:27	0.181	73.851			
00:00:27	-0.781	73.851			
00:00:27	-1.165	73.851			
00:00:27	-1.457	73.851			
00:00:27	-1.674	73.851			
00:00:27	-1.764	73.851			
00:00:27	-2.062	73.851			
00:00:27	-2.009	73.851			
00:00:27	-2.043	73.851			
00:00:27	-1.993	73.851			
00:00:27	-1.535	73.851			
00:00:27	-1.488	73.851			
00:00:27	-1.281	73.851			
00:00:27	-1.068	73.851			
00:00:27	-1.005	73.851			
00:00:27	-0.649	73.851			
00:00:27	-0.639	73.851			
00:00:27	-0.563	73.851			
00:00:27	-0.486	73.851			
00:00:27	-0.744	73.851			
00:00:27	-0.747	73.851			
00:00:27	-1.005	73.851			
00:00:27	-1.185	73.851			
00:00:27	-1.083	73.851			
00:00:27	-1.355	73.851			
00:00:27	-1.276	73.851			
00:00:27	-1.570	73.851			
00:00:27	-1.886	73.851			
00:00:27	-1.955	73.851			
00:00:27	-2.296	73.851			
00:00:27	-2.211	73.851			
00:00:27	-2.257	73.851			
00:00:27	-2.565	73.851			
00:00:27	-2.671	73.851			
00:00:27	-3.237	73.851			
00:00:27	-3.560	73.851			
00:00:27	-3.596	73.851			
00:00:27	-3.786	73.851			
00:00:27	-3.469	73.851			
00:00:27	-3.517	73.851			
00:00:27	-3.556	73.851			
00:00:27	-3.342	73.851			
00:00:27	-3.395	73.851			
00:00:27	-3.214	73.851			
00:00:27	-3.224	73.851			
00:00:27	-3.309	73.851			
00:00:27	-3.106	73.851			
00:00:27	-3.176	73.851			
00:00:27	-2.947	73.851			
00:00:27	-2.680	73.851			
00:00:27	-2.529	73.851			
00:00:27	-2.203	73.851			
00:00:27	-2.245	73.851			
00:00:27	-2.027	73.851			
00:00:27	-1.718	73.851			
00:00:27	-1.629	73.851			
00:00:27	-1.391	73.851			
00:00:27	-1.687	73.851			
00:00:27	-1.763	73.851			
00:00:27	-1.627	73.851			
00:00:27	-1.766	73.851			
00:00:27	-1.617	73.851			
00:00:27	-1.794	73.851			
00:00:27	-1.783	73.851			
00:00:27	-1.625	73.851			
00:00:27	-1.809	73.851			
00:00:27	-1.832	73.851			
00:00:27	-2.223	73.851			
00:00:27	-2.431	73.851			
00:00:27	-2.252	73.851			
00:00:27	-2.108	73.851			
00:00:27	-1.522	73.851			
00:00:27	-0.795	73.851			
00:00:27	0.196	73.851			
00:00:27	1.782	73.851			
00:00:27	3.225	73.851			
00:00:27	5.238	73.851			
00:00:27	7.446	73.851			
00:00:27	9.377	73.851			
00:00:27	11.530	73.851			
00:00:27	13.195	73.851			
00:00:27	14.758	73.851			
00:00:27	15.781	73.851			
00:00:27	16.163	73.851			
00:00:27	16.510	73.851			
00:00:27	16.476	73.851			
00:00:27	16.258	73.851			
00:00:27	15.919	73.851			
00:00:27	15.145	73.851			
00:00:27	14.548	73.851			
00:00:27	13.660	73.851			
00:00:27	12.700	73.851			
00:00:27	11.953	73.851			
00:00:27	10.769	73.851			
00:00:27	9.938	73.851			
00:00:27	9.014	73.851			
00:00:27	7.994	73.846			
00:00:27	7.217	73.846			
00:00:27	6.303	73.846			
00:00:27	5.693	73.846			
00:00:27	5.061	73.851			
00:00:27	4.018	73.851			
00:00:27	3.257	73.851			
00:00:27	2.373	73.851			
00:00:28	1.528	73.851			
00:00:28	0.725	73.851			
00:00:28	-0.277	73.851			
00:00:28	-0.751	73.851			
00:00:28	-1.259	73.851			
00:00:28	-1.735	73.851			
00:00:28	-1.847	73.851			
00:00:28	-2.035	73.851			
00:00:28	-1.684	73.851			
00:00:28	-1.482	73.851			
00:00:28	-1.353	73.851			
00:00:28	-0.969	73.851			
00:00:28	-1.031	73.851			
00:00:28	-0.766	73.851			
00:00:28	-0.650	73.851			
00:00:28	-0.697	73.851			
00:00:28	-0.262	73.851			
00:00:28	-0.355	73.851			
00:00:28	-0.249	73.851			
00:00:28	-0.139	73.851			
00:00:28	-0.217	73.851			
00:00:28	0.009	73.851			
00:00:28	-0.163	73.851			
00:00:28	-0.404	73.851			
00:00:28	-0.656	73.851			
00:00:28	-1.250	73.851			
00:00:28	-1.270	73.851			
00:00:28	-1.523	73.851			
00:00:28	-2.003	73.851			
00:00:28	-2.353	73.851			
00:00:28	-2.840	73.851			
00:00:28	-2.693	73.851			
00:00:28	-2.823	73.851			
00:00:28	-3.131	73.851			
00:00:28	-3.099	73.851			
00:00:28	-3.315	73.851			
00:00:28	-3.313	73.851			
00:00:28	-3.313	73.851			
00:00:28	-3.336	73.851			
00:00:28	-3.053	73.851			
00:00:28	-3.206	73.851			
00:00:28	-3.054	73.851			
00:00:28	-2.881	73.851			
00:00:28	-3.041	73.851			
00:00:28	-2.765	73.851			
00:00:28	-2.665	73.851			
00:00:28	-2.479	73.851			
00:00:28	-2.198	73.851			
00:00:28	-2.186	73.851			
00:00:28	-1.825	73.851			
00:00:28	-1.838	73.851			
00:00:28	-1.783	73.851			
00:00:28	-1.380	73.851			
00:00:28	-1.341	73.851			
00:00:28	-1.186	73.851			
00:00:28	-1.089	73.851			
00:00:28	-1.061	73.851			
00:00:28	-0.806	73.851			
00:00:28	-1.113	73.851			
00:00:28	-1.177	73.851			
00:00:28	-1.251	73.851			
00:00:28	-1.538	73.851			
00:00:28	-1.498	73.851			
00:00:28	-1.823	73.851			
00:00:28	-2.011	73.851			
00:00:28	-1.984	73.851			
00:00:28	-2.229	73.851			
00:00:28	-2.199	73.851			
00:00:28	-2.305	73.851			
00:00:28	-2.399	73.851			
00:00:28	-2.084	73.851			
00:00:28	-1.903	73.851			
00:00:28	-1.278	73.851			
00:00:28	-0.649	73.851			
00:00:28	0.312	73.851			
00:00:28	1.782	73.851			
00:00:28	3.279	73.851			
00:00:28	5.332	73.851			
00:00:28	7.337	73.851			
00:00:28	9.044	73.851			
00:00:28	11.055	73.851			
00:00:28	12.642	73.851			
00:00:28	14.187	73.851			
00:00:28	15.393	73.851			
00:00:28	15.838	73.851			
00:00:28	16.394	73.851			
00:00:28	16.300	73.851			
00:00:28	15.966	73.851			
00:00:28	15.503	73.851			
00:00:28	14.668	73.851			
00:00:28	14.299	73.851			
00:00:28	13.501	73.851			
00:00:28	12.671	73.851			
00:00:28	11.924	73.851			
00:00:28	10.809	73.851			
00:00:28	10.146	73.851			
00:00:28	9.248	73.846			
00:00:28	8.191	73.846			
00:00:28	7.483	73.846			
00:00:28	6.380	73.846			
00:00:28	5.498	73.851			
00:00:28	4.631	73.851			
00:00:28	3.660	73.851			
00:00:28	2.942	73.851			
00:00:28	1.835	73.851			
00:00:28	0.987	73.851			
00:00:28	0.197	73.851			
00:00:28	-0.670	73.851			
00:00:28	-1.036	73.851			
00:00:28	-1.498	73.851			
00:00:28	-1.657	73.851			
00:00:28	-1.550	73.851			
00:00:28	-1.699	73.851			
00:00:28	-1.447	73.851			
00:00:28	-1.371	73.851			
00:00:28	-1.397	73.851			
00:00:28	-1.051	73.851			
00:00:28	-1.029	73.851			
00:00:28	-0.693	73.851			
00:00:28	-0.490	73.851			
00:00:28	-0.399	73.851			
00:00:28	-0.254	73.851			
00:00:28	-0.381	73.851			
00:00:28	-0.231	73.851			
00:00:28	-0.235	73.851			
00:00:28	-0.553	73.851			
00:00:28	-0.436	73.851			
00:00:28	-0.574	73.851			
00:00:29	-0.815	73.851			
00:00:29	-1.146	73.851			
00:00:29	-1.676	73.851			
00:00:29	-1.781	73.851			
00:00:29	-2.010	73.851			
00:00:29	-2.163	73.851			
00:00:29	-2.106	73.851			
00:00:29	-2.532	73.851			
00:00:29	-2.525	73.851			
00:00:29	-2.677	73.851			
00:00:29	-2.886	73.851			
00:00:29	-2.663	73.851			
00:00:29	-2.809	73.851			
00:00:29	-2.769	73.851			
00:00:29	-2.836	73.851			
00:00:29	-3.012	73.851			
00:00:29	-2.787	73.851			
00:00:29	-2.881	73.851			
00:00:29	-2.785	73.851			
00:00:29	-2.732	73.851			
00:00:29	-2.793	73.851			
00:00:29	-2.350	73.851			
00:00:29	-2.226	73.851			
00:00:29	-1.939	73.851			
00:00:29	-1.682	73.851			
00:00:29	-1.849	73.851			
00:00:29	-1.652	73.851			
00:00:29	-1.754	73.851			
00:00:29	-1.882	73.851			
00:00:29	-1.783	73.851			
00:00:29	-1.920	73.851			
00:00:29	-1.646	73.851			
00:00:29	-1.652	73.851			
00:00:29	-1.651	73.851			
00:00:29	-1.387	73.851			
00:00:29	-1.547	73.851			
00:00:29	-1.434	73.851			
00:00:29	-1.475	73.851			
00:00:29	-1.649	73.851			
00:00:29	-1.455	73.851			
00:00:29	-1.578	73.851			
00:00:29	-1.570	73.851			
00:00:29	-1.621	73.851			
00:00:29	-1.834	73.851			
00:00:29	-1.821	73.851			
00:00:29	-2.029	73.851			
00:00:29	-1.905	73.851			
00:00:29	-1.420	73.851			
00:00:29	-1.061	73.851			
00:00:29	-0.194	73.851			
00:00:29	0.914	73.851			
00:00:29	2.441	73.851			
00:00:29	4.282	73.851			
00:00:29	5.939	73.851			
00:00:29	7.968	73.851			
00:00:29	9.930	73.851			
00:00:29	11.580	73.851			
00:00:29	13.264	73.851			
00:00:29	14.218	73.851			
00:00:29	14.917	73.851			
00:00:29	15.274	73.851			
00:00:29	15.295	73.851			
00:00:29	15.581	73.851			
00:00:29	15.229	73.851			
00:00:29	14.603	73.851			
00:00:29	14.034	73.851			
00:00:29	13.100	73.851			
00:00:29	12.398	73.851			
00:00:29	11.299	73.851			
00:00:29	10.289	73.851			
00:00:29	9.535	73.851			
00:00:29	8.466	73.851			
00:00:29	7.838	73.846			
00:00:29	6.985	73.846			
00:00:29	6.038	73.846			
00:00:29	5.232	73.846			
00:00:29	3.893	73.851			
00:00:29	2.943	73.851			
00:00:29	1.864	73.851			
00:00:29	0.756	73.851			
00:00:29	0.223	73.851			
00:00:29	-0.385	73.851			
00:00:29	-0.790	73.851			
00:00:29	-1.143	73.851			
00:00:29	-1.546	73.851			
00:00:29	-1.575	73.851			
00:00:29	-1.780	73.851			
00:00:29	-1.682	73.851			
00:00:29	-1.347	73.851			
00:00:29	-1.270	73.851			
00:00:29	-0.909	73.851			
00:00:29	-0.835	73.851			
00:00:29	-0.643	73.851			
00:00:29	-0.052	73.851			
00:00:29	0.109	73.851			
00:00:29	0.383	73.851			
00:00:29	0.358	73.851			
00:00:29	0.288	73.851			
00:00:29	0.397	73.851			
00:00:29	-0.016	73.851			
00:00:29	-0.275	73.851			
00:00:29	-0.522	73.851			
00:00:29	-0.768	73.851			
00:00:29	-0.679	73.851			
00:00:29	-0.987	73.851			
00:00:29	-1.208	73.851			
00:00:29	-1.361	73.851			
00:00:29	-1.667	73.851			
00:00:29	-1.576	73.851			
00:00:29	-1.777	73.851			
00:00:29	-1.977	73.851			
00:00:29	-2.149	73.851			
00:00:29	-2.462	73.851			
00:00:29	-2.446	73.851			
00:00:29	-2.655	73.851			
00:00:29	-2.740	73.851			
00:00:29	-2.601	73.851			
00:00:29	-2.809	73.851			
00:00:29	-2.714	73.851			
00:00:29	-2.676	73.851			
00:00:29	-2.641	73.851			
00:00:29	-2.234	73.851			
00:00:29	-2.344	73.851			
00:00:29	-2.191	73.851			
00:00:29	-1.969	73.851			
00:00:29	-1.994	73.851			
00:00:29	-1.663	73.851			
00:00:29	-1.706	73.851			
00:00:30	-1.750	73.851			
00:00:30	-1.566	73.851			
00:00:30	-1.654	73.851			
00:00:30	-1.496	73.851			
00:00:30	-1.570	73.851			
00:00:30	-1.593	73.851			
00:00:30	-1.428	73.851			
00:00:30	-1.373	73.851			
00:00:30	-1.116	73.851			
00:00:30	-1.273	73.851			
00:00:30	-1.416	73.851			
00:00:30	-1.140	73.851			
00:00:30	-1.359	73.851			
00:00:30	-1.268	73.851			
00:00:30	-1.232	73.851			
00:00:30	-1.431	73.851			
00:00:30	-1.242	73.851			
00:00:30	-1.421	73.851			
00:00:30	-1.414	73.851			
00:00:30	-1.152	73.851			
00:00:30	-0.878	73.851			
00:00:30	-0.039	73.851			
00:00:30	0.757	73.851			
00:00:30	2.133	73.851			
00:00:30	3.941	73.851			
00:00:30	5.446	73.851			
00:00:30	7.254	73.851			
00:00:30	8.838	73.851			
00:00:30	10.416	73.851			
00:00:30	12.034	73.851			
00:00:30	13.046	73.851			
00:00:30	14.008	73.851			
00:00:30	14.624	73.851			
00:00:30	14.924	73.851			
00:00:30	15.134	73.851			
00:00:30	14.816	73.851			
00:00:30	14.611	73.851			
00:00:30	14.138	73.851			
00:00:30	13.485	73.851			
00:00:30	12.977	73.851			
00:00:30	11.965	73.851			
00:00:30	11.084	73.851			
00:00:30	10.383	73.851			
00:00:30	9.361	73.851			
00:00:30	8.578	76.040			
00:00:30	7.518	76.040			
00:00:30	6.645	76.040			
00:00:30	5.850	76.040			
00:00:30	4.639	76.045			
00:00:30	3.595	76.045			
00:00:30	2.530	76.045			
00:00:30	1.588	76.045			
00:00:30	0.784	76.045			
00:00:30	-0.269	76.045			
00:00:30	-0.891	76.045			
00:00:30	-1.549	76.045			
00:00:30	-2.055	76.045			
00:00:30	-2.029	76.045			
00:00:30	-2.117	76.045			
00:00:30	-1.909	76.045			
00:00:30	-1.675	76.045			
00:00:30	-1.534	76.045			
00:00:30	-1.033	76.045			
00:00:30	-0.931	76.045			
00:00:30	-0.713	76.045			
00:00:30	-0.523	76.045			
00:00:30	-0.557	76.045			
00:00:30	-0.162	76.045			
00:00:30	-0.192	76.045			
00:00:30	-0.213	76.045			
00:00:30	-0.208	76.045			
00:00:30	-0.477	76.045			
00:00:30	-0.480	76.045			
00:00:30	-0.832	76.045			
00:00:30	-0.983	76.045			
00:00:30	-1.186	76.045			
00:00:30	-1.671	76.045			
00:00:30	-1.620	76.045			
00:00:30	-1.705	76.045			
00:00:30	-1.776	76.045			
00:00:30	-1.778	76.045			
00:00:30	-2.155	76.045			
00:00:30	-2.203	76.045			
00:00:30	-2.197	76.045			
00:00:30	-2.346	76.045			
00:00:30	-2.333	76.045			
00:00:30	-2.592	76.045			
00:00:30	-2.645	76.045			
00:00:30	-2.598	76.045			
00:00:30	-2.771	76.045			
00:00:30	-2.610	76.045			
00:00:30	-2.666	76.045			
00:00:30	-2.677	76.045			
00:00:30	-2.527	76.045			
00:00:30	-2.695	76.045			
00:00:30	-2.506	76.045			
00:00:30	-2.439	76.045			
00:00:30	-2.390	76.045			
00:00:30	-2.173	76.045			
00:00:30	-2.186	76.045			
00:00:30	-1.797	76.045			
00:00:30	-1.545	76.045			
00:00:30	-1.469	76.045			
00:00:30	-1.119	76.045			
00:00:30	-1.191	76.045			
00:00:30	-0.997	76.045			
00:00:30	-0.923	76.045			
00:00:30	-0.941	76.045			
00:00:30	-0.802	76.045			
00:00:30	-1.067	76.045			
00:00:30	-1.147	76.045			
00:00:30	-1.076	76.045			
00:00:30	-1.315	76.045			
00:00:30	-1.231	76.045			
00:00:30	-1.411	76.045			
00:00:30	-1.553	76.045			
00:00:30	-1.375	76.045			
00:00:30	-1.492	76.045			
00:00:30	-1.184	76.045			
00:00:30	-0.955	76.045			
00:00:30	-0.612	76.045			
00:00:30	0.152	76.045			
00:00:30	0.677	76.045			
00:00:30	1.853	76.045			
00:00:30	3.339	76.045			
00:00:30	4.959	76.045			
00:00:30	7.191	76.045			
00:00:30	8.993	76.045			
00:00:31	10.807	76.045			
00:00:31	12.347	76.045			
00:00:31	13.466	76.045			
00:00:31	14.886	76.045			
00:00:31	15.653	76.045			
00:00:31	16.224	76.045			
00:00:31	16.419	76.045			
00:00:31	16.065	76.045			
00:00:31	15.957	76.045			
00:00:31	15.542	76.045			
00:00:31	14.847	76.045			
00:00:31	14.166	76.045			
00:00:31	13.077	76.045			
00:00:31	12.447	76.045			
00:00:31	11.623	76.045			
00:00:31	10.696	76.045			
00:00:31	10.297	76.800			
00:00:31	9.381	76.800			
00:00:31	8.625	76.800			
00:00:31	7.808	76.800			
00:00:31	6.715	76.805			
00:00:31	5.942	76.805			
00:00:31	4.951	76.805			
00:00:31	4.084	76.805			
00:00:31	3.170	76.805			
00:00:31	2.099	76.805			
00:00:31	1.491	76.805			
00:00:31	0.593	76.805			
00:00:31	-0.057	76.805			
00:00:31	-0.409	76.805			
00:00:31	-0.933	76.805			
00:00:31	-0.967	76.805			
00:00:31	-1.221	76.805			
00:00:31	-1.258	76.805			
00:00:31	-0.860	76.805			
00:00:31	-0.905	76.805			
00:00:31	-0.575	76.805			
00:00:31	-0.339	76.805			
00:00:31	-0.389	76.805			
00:00:31	-0.170	76.805			
00:00:31	-0.082	76.805			
00:00:31	0.106	76.805			
00:00:31	0.091	76.805			
00:00:31	-0.142	76.805			
00:00:31	-0.031	76.805			
00:00:31	-0.355	76.805			
00:00:31	-0.650	76.805			
00:00:31	-0.740	76.805			
00:00:31	-1.096	76.805			
00:00:31	-1.072	76.805			
00:00:31	-1.274	76.805			
00:00:31	-1.569	76.805			
00:00:31	-1.738	76.805			
00:00:31	-2.194	76.805			
00:00:31	-2.255	76.805			
00:00:31	-2.473	76.805			
00:00:31	-2.536	76.805			
00:00:31	-2.351	76.805			
00:00:31	-2.687	76.805			
00:00:31	-2.588	76.805			
00:00:31	-2.460	76.805			
00:00:31	-2.634	76.805			
00:00:31	-2.524	76.805			
00:00:31	-2.737	76.805			
00:00:31	-2.582	76.805			
00:00:31	-2.361	76.805			
00:00:31	-2.534	76.805			
00:00:31	-2.387	76.805			
00:00:31	-2.553	76.805			
00:00:31	-2.568	76.805			
00:00:31	-2.271	76.805			
00:00:31	-2.357	76.805			
00:00:31	-2.079	76.805			
00:00:31	-2.041	76.805			
00:00:31	-1.847	76.805			
00:00:31	-1.473	76.805			
00:00:31	-1.522	76.805			
00:00:31	-1.275	76.805			
00:00:31	-1.232	76.805			
00:00:31	-1.443	76.805			
00:00:31	-1.368	76.805			
00:00:31	-1.536	76.805			
00:00:31	-1.423	76.805			
00:00:31	-1.323	76.805			
00:00:31	-1.440	76.805			
00:00:31	-1.232	76.805			
00:00:31	-1.285	76.805			
00:00:31	-1.271	76.805			
00:00:31	-1.235	76.805			
00:00:31	-1.482	76.805			
00:00:31	-1.473	76.805			
00:00:31	-1.682	76.805			
00:00:31	-1.777	76.805			
00:00:31	-1.568	76.805			
00:00:31	-1.599	76.805			
00:00:31	-1.066	76.805			
00:00:31	-0.400	76.805			
00:00:31	0.592	76.805			
00:00:31	2.069	76.805			
00:00:31	3.546	76.805			
00:00:31	5.660	76.805			
00:00:31	7.723	76.805			
00:00:31	9.597	76.805			
00:00:31	11.442	76.805			
00:00:31	12.606	76.805			
00:00:31	13.781	76.805			
00:00:31	14.757	76.805			
00:00:31	15.346	76.805			
00:00:31	15.758	76.805			
00:00:31	15.644	76.805			
00:00:31	15.478	76.805			
00:00:31	15.347	76.805			
00:00:31	14.780	76.805			
00:00:31	14.454	76.805			
00:00:31	13.753	76.805			
00:00:31	13.009	76.805			
00:00:31	12.239	76.805			
00:00:31	11.132	76.805			
00:00:31	10.267	76.805			
00:00:31	9.276	76.805			
00:00:31	8.228	74.563			
00:00:31	7.594	74.563			
00:00:31	6.755	74.563			
00:00:31	6.257	74.563			
00:00:31	5.399	74.568			
00:00:31	4.239	74.568			
00:00:31	3.361	74.568			
00:00:31	2.216	74.568			
00:00:32	1.449	70.464			
00:00:32	0.716	70.464			
00:00:32	-0.191	70.464			
00:00:32	-0.562	70.464			
00:00:32	-1.047	70.464			
00:00:32	-1.285	70.464			
00:00:32	-1.300	70.464			
00:00:32	-1.453	70.464			
00:00:32	-1.258	70.464			
00:00:32	-1.286	70.464			
00:00:32	-1.257	70.464			
00:00:32	-0.950	70.464			
00:00:32	-0.877	70.464			
00:00:32	-0.479	70.464			
00:00:32	-0.486	70.464			
00:00:32	-0.648	70.464			
00:00:32	-0.530	70.464			
00:00:32	-0.749	70.464			
00:00:32	-0.763	70.464			
00:00:32	-0.737	70.464			
00:00:32	-0.993	70.464			
00:00:32	-1.077	70.464			
00:00:32	-1.416	70.464			
00:00:32	-1.483	70.464			
00:00:32	-1.542	70.464			
00:00:32	-1.798	70.464			
00:00:32	-1.588	70.464			
00:00:32	-1.741	70.464			
00:00:32	-2.027	70.464			
00:00:32	-2.212	70.464			
00:00:32	-2.477	70.464			
00:00:32	-2.302	70.464			
00:00:32	-2.361	70.464			
00:00:32	-2.586	70.464			
00:00:32	-2.448	70.464			
00:00:32	-2.617	70.464			
00:00:32	-2.465	70.464			
00:00:32	-2.551	70.464			
00:00:32	-2.690	70.464			
00:00:32	-2.457	70.464			
00:00:32	-2.544	70.464			
00:00:32	-2.455	70.464			
00:00:32	-2.403	70.464			
00:00:32	-2.589	70.464			
00:00:32	-2.375	70.464			
00:00:32	-2.477	70.464			
00:00:32	-2.376	70.464			
00:00:32	-2.287	70.464			
00:00:32	-2.385	70.464			
00:00:32	-2.105	70.464			
00:00:32	-2.059	70.464			
00:00:32	-1.973	70.464			
00:00:32	-1.968	70.464			
00:00:32	-2.116	70.464			
00:00:32	-1.785	70.464			
00:00:32	-1.672	70.464			
00:00:32	-1.635	70.464			
00:00:32	-1.414	70.464			
00:00:32	-1.567	70.464			
00:00:32	-1.492	70.464			
00:00:32	-1.574	70.464			
00:00:32	-1.617	70.464			
00:00:32	-1.298	70.464			
00:00:32	-1.631	70.464			
00:00:32	-1.715	70.464			
00:00:32	-1.663	70.464			
00:00:32	-1.828	70.464			
00:00:32	-1.778	70.464			
00:00:32	-2.041	70.464			
00:00:32	-2.074	70.464			
00:00:32	-1.889	70.464			
00:00:32	-1.656	70.464			
00:00:32	-0.826	70.464			
00:00:32	0.135	70.464			
00:00:32	1.392	70.464			
00:00:32	3.160	70.464			
00:00:32	4.822	70.464			
00:00:32	6.830	70.464			
00:00:32	8.704	70.464			
00:00:32	10.568	70.464			
00:00:32	12.430	70.464			
00:00:32	13.443	70.464			
00:00:32	14.516	70.464			
00:00:32	15.213	70.464			
00:00:32	15.374	70.464			
00:00:32	15.557	70.464			
00:00:32	15.317	70.464			
00:00:32	15.112	70.464			
00:00:32	14.561	70.464			
00:00:32	13.745	70.464			
00:00:32	13.216	70.464			
00:00:32	12.227	70.464			
00:00:32	11.307	70.464			
00:00:32	10.567	70.464			
00:00:32	9.545	70.464			
00:00:32	8.871	70.464			
00:00:32	7.888	43.390			
00:00:32	7.103	43.390			
00:00:32	6.588	43.390			
00:00:32	5.566	43.390			
00:00:32	4.707	43.395			
00:00:32	3.702	43.395			
00:00:32	2.732	43.395			
00:00:32	1.978	43.395			
00:00:32	0.957	43.395			
00:00:32	0.247	43.395			
00:00:32	-0.392	43.395			
00:00:32	-1.059	43.395			
00:00:32	-1.237	43.395			
00:00:32	-1.587	43.395			
00:00:32	-1.606	43.395			
00:00:32	-1.512	43.395			
00:00:32	-1.616	43.395			
00:00:32	-1.249	43.395			
00:00:32	-1.053	43.395			
00:00:32	-0.813	43.395			
00:00:32	-0.461	43.395			
00:00:32	-0.552	43.395			
00:00:32	-0.399	43.395			
00:00:32	-0.367	43.395			
00:00:32	-0.391	43.395			
00:00:32	-0.414	43.395			
00:00:32	-0.695	43.395			
00:00:32	-0.597	43.395			
00:00:32	-0.672	43.395			
00:00:32	-0.894	43.395			
00:00:32	-1.081	43.395			
00:00:32	-1.286	43.395			
00:00:33	-1.173	43.395			
00:00:33	-1.172	43.395			
00:00:33	-1.457	43.395			
00:00:33	-1.455	43.395			
00:00:33	-1.808	43.395			
00:00:33	-2.082	43.395			
00:00:33	-2.180	43.395			
00:00:33	-2.389	43.395			
00:00:33	-2.375	43.395			
00:00:33	-2.706	43.395			
00:00:33	-2.917	43.395			
00:00:33	-2.829	43.395			
00:00:33	-3.020	43.395			
00:00:33	-2.862	43.395			
00:00:33	-2.897	43.395			
00:00:33	-2.933	43.395			
00:00:33	-2.624	43.395			
00:00:33	-2.647	43.395			
00:00:33	-2.474	43.395			
00:00:33	-2.531	43.395			
00:00:33	-2.646	43.395			
00:00:33	-2.267	43.395			
00:00:33	-2.195	43.395			
00:00:33	-1.907	43.395			
00:00:33	-1.697	43.395			
00:00:33	-1.729	43.395			
00:00:33	-1.565	43.395			
00:00:33	-1.630	43.395			
00:00:33	-1.454	43.395			
00:00:33	-1.164	43.395			
00:00:33	-1.361	43.395			
00:00:33	-1.173	43.395			
00:00:33	-1.077	43.395			
00:00:33	-1.020	43.395			
00:00:33	-1.069	43.395			
00:00:33	-1.416	43.395			
00:00:33	-1.408	43.395			
00:00:33	-1.539	43.395			
00:00:33	-1.710	43.395			
00:00:33	-1.463	43.395			
00:00:33	-1.719	43.395			
00:00:33	-1.906	43.395			
00:00:33	-2.123	43.395			
00:00:33	-2.240	43.395			
00:00:33	-1.884	43.395			
00:00:33	-1.846	43.395			
00:00:33	-1.405	43.395			
00:00:33	-0.821	43.395			
00:00:33	0.077	43.395			
00:00:33	1.610	43.395			
00:00:33	3.090	43.395			
00:00:33	4.812	43.395			
00:00:33	6.752	43.395			
00:00:33	8.321	43.395			
00:00:33	10.362	43.395			
00:00:33	11.935	43.395			
00:00:33	13.111	43.395			
00:00:33	14.164	43.395			
00:00:33	14.795	43.395			
00:00:33	15.600	43.395			
00:00:33	15.761	43.395			
00:00:33	15.375	43.395			
00:00:33	15.196	43.395			
00:00:33	14.609	43.395			
00:00:33	14.109	43.395			
00:00:33	13.475	43.395			
00:00:33	12.488	43.395			
00:00:33	11.737	43.395			
00:00:33	10.547	74.563			
00:00:33	9.635	74.563			
00:00:33	8.824	74.563			
00:00:33	7.968	74.563			
00:00:33	7.496	74.568			
00:00:33	6.715	74.568			
00:00:33	5.950	74.568			
00:00:33	5.197	74.568			
00:00:33	4.158	74.568			
00:00:33	3.522	74.568			
00:00:33	2.484	74.568			
00:00:33	1.444	74.568			
00:00:33	0.633	74.568			
00:00:33	-0.292	74.568			
00:00:33	-0.593	74.568			
00:00:33	-1.058	74.568			
00:00:33	-1.563	74.568			
00:00:33	-1.658	74.568			
00:00:33	-1.855	74.568			
00:00:33	-1.806	74.568			
00:00:33	-1.619	74.568			
00:00:33	-1.581	74.568			
00:00:33	-1.133	74.568			
00:00:33	-1.073	74.568			
00:00:33	-0.827	74.568			
00:00:33	-0.431	74.568			
00:00:33	-0.599	74.568			
00:00:33	-0.455	74.568			
00:00:33	-0.516	74.568			
00:00:33	-0.474	74.568			
00:00:33	-0.377	74.568			
00:00:33	-0.713	74.568			
00:00:33	-0.603	74.568			
00:00:33	-0.821	74.568			
00:00:33	-1.178	74.568			
00:00:33	-1.286	74.568			
00:00:33	-1.690	74.568			
00:00:33	-1.873	74.568			
00:00:33	-2.157	74.568			
00:00:33	-2.607	74.568			
00:00:33	-2.691	74.568			
00:00:33	-3.141	74.568			
00:00:33	-3.183	74.568			
00:00:33	-3.152	74.568			
00:00:33	-3.267	74.568			
00:00:33	-3.142	74.568			
00:00:33	-3.287	74.568			
00:00:33	-3.267	74.568			
00:00:33	-3.085	74.568			
00:00:33	-3.189	74.568			
00:00:33	-3.078	74.568			
00:00:33	-3.150	74.568			
00:00:33	-3.225	74.568			
00:00:33	-3.122	74.568			
00:00:33	-3.194	74.568			
00:00:33	-2.819	74.568			
00:00:33	-2.609	74.568			
00:00:33	-2.463	74.568			
00:00:33	-2.123	74.568			
00:00:33	-2.225	74.568			
00:00:34	-2.053	74.568			
00:00:34	-1.980	74.568			
00:00:34	-1.904	74.568			
00:00:34	-1.507	74.568			
00:00:34	-1.581	74.568			
00:00:34	-1.534	74.568			
00:00:34	-1.503	74.568			
00:00:34	-1.673	74.568			
00:00:34	-1.522	74.568			
00:00:34	-1.694	74.568			
00:00:34	-1.686	74.568			
00:00:34	-1.652	74.568			
00:00:34	-1.852	74.568			
00:00:34	-1.874	74.568			
00:00:34	-2.175	74.568			
00:00:34	-2.337	74.568			
00:00:34	-2.027	74.568			
00:00:34	-1.948	74.568			
00:00:34	-1.957	74.568			
00:00:34	-2.108	74.568			
00:00:34	-2.207	74.568			
00:00:34	-1.914	74.568			
00:00:34	-1.751	74.568			
00:00:34	-1.305	74.568			
00:00:34	-0.758	74.568			
00:00:34	-0.089	74.568			
00:00:34	1.374	74.568			
00:00:34	2.933	74.568			
00:00:34	4.892	74.568			
00:00:34	6.896	74.568			
00:00:34	8.699	74.568			
00:00:34	10.880	74.568			
00:00:34	12.521	74.568			
00:00:34	14.025	74.568			
00:00:34	15.406	74.568			
00:00:34	15.907	74.568			
00:00:34	16.434	74.568			
00:00:34	16.483	74.568			
00:00:34	16.354	74.568			
00:00:34	16.191	74.568			
00:00:34	15.336	74.568			
00:00:34	14.905	74.568			
00:00:34	14.352	74.568			
00:00:34	13.729	74.568			
00:00:34	13.222	74.568			
00:00:34	12.196	74.568			
00:00:34	11.413	74.568			
00:00:34	10.469	74.568			
00:00:34	9.381	73.143			
00:00:34	8.691	73.143			
00:00:34	7.649	73.143			
00:00:34	6.733	73.143			
00:00:34	6.017	73.148			
00:00:34	5.019	73.148			
00:00:34	4.256	73.148			
00:00:34	3.100	73.148			
00:00:34	2.006	73.148			
00:00:34	1.203	73.148			
00:00:34	0.148	73.148			
00:00:34	-0.471	73.148			
00:00:34	-1.075	73.148			
00:00:34	-1.544	73.148			
00:00:34	-1.637	73.148			
00:00:34	-1.884	73.148			
00:00:34	-1.673	73.148			
00:00:34	-1.422	73.148			
00:00:34	-1.428	73.148			
00:00:34	-1.219	73.148			
00:00:34	-1.188	73.148			
00:00:34	-0.972	73.148			
00:00:34	-0.798	73.148			
00:00:34	-0.846	73.148			
00:00:34	-0.612	73.148			
00:00:34	-0.708	73.148			
00:00:34	-0.710	73.148			
00:00:34	-0.610	73.148			
00:00:34	-0.652	73.148			
00:00:34	-0.676	73.148			
00:00:34	-1.044	73.148			
00:00:34	-1.316	73.148			
00:00:34	-1.214	73.148			
00:00:34	-1.406	73.148			
00:00:34	-1.497	73.148			
00:00:34	-1.788	73.148			
00:00:34	-2.000	73.148			
00:00:34	-2.087	73.148			
00:00:34	-2.484	73.148			
00:00:34	-2.543	73.148			
00:00:34	-2.688	73.148			
00:00:34	-2.925	73.148			
00:00:34	-2.826	73.148			
00:00:34	-3.104	73.148			
00:00:34	-2.964	73.148			
00:00:34	-2.807	73.148			
00:00:34	-2.900	73.148			
00:00:34	-2.706	73.148			
00:00:34	-2.811	73.148			
00:00:34	-2.792	73.148			
00:00:34	-2.719	73.148			
00:00:34	-3.025	73.148			
00:00:34	-2.837	73.148			
00:00:34	-2.900	73.148			
00:00:34	-2.854	73.148			
00:00:34	-2.530	73.148			
00:00:34	-2.647	73.148			
00:00:34	-2.467	73.148			
00:00:34	-2.452	73.148			
00:00:34	-2.274	73.148			
00:00:34	-1.762	73.148			
00:00:34	-1.713	73.148			
00:00:34	-1.611	73.148			
00:00:34	-1.468	73.148			
00:00:34	-1.353	73.148			
00:00:34	-1.118	73.148			
00:00:34	-1.477	73.148			
00:00:34	-1.478	73.148			
00:00:34	-1.313	73.148			
00:00:34	-1.571	73.148			
00:00:34	-1.452	73.148			
00:00:34	-1.574	73.148			
00:00:34	-1.658	73.148			
00:00:34	-1.627	73.148			
00:00:34	-2.030	73.148			
00:00:34	-1.942	73.148			
00:00:34	-2.015	73.148			
00:00:34	-2.188	73.148			
00:00:34	-2.204	73.148			
00:00:34	-2.509	73.148			
00:00:35	-2.262	73.148			
00:00:35	-1.858	73.148			
