RAW Data export file (tab separated)


Client:	,kozawa
Session:	kozawa3
Date:	06-07-2020
Time:	10:33:24
Duration:	119	Seconds.
Output rate:	128	Samples/sec.

hh:mm:ss	128 SPS	32 SPS	
TIME	Sensor-G:BVP	HR (BVP)	Events	Segments	


00:00:00	3.488	70.000			
00:00:00	2.463	70.000			
00:00:00	1.325	70.000			
00:00:00	0.618	70.000			
00:00:00	-0.427	70.000			
00:00:00	-1.175	70.000			
00:00:00	-1.801	70.000			
00:00:00	-2.404	70.000			
00:00:00	-2.443	70.000			
00:00:00	-2.669	70.000			
00:00:00	-2.721	70.000			
00:00:00	-2.477	70.000			
00:00:00	-2.503	70.000			
00:00:00	-2.133	70.000			
00:00:00	-1.930	70.000			
00:00:00	-1.655	70.000			
00:00:00	-1.402	70.000			
00:00:00	-1.487	70.000			
00:00:00	-1.377	70.000			
00:00:00	-1.420	70.000			
00:00:00	-1.448	70.000			
00:00:00	-1.227	70.000			
00:00:00	-1.421	70.000			
00:00:00	-1.551	70.000			
00:00:00	-1.746	70.000			
00:00:00	-2.202	70.000			
00:00:00	-2.290	70.000			
00:00:00	-2.564	70.000			
00:00:00	-2.468	70.000			
00:00:00	-2.418	70.000			
00:00:00	-2.775	70.000			
00:00:00	-2.840	70.000			
00:00:00	-3.241	70.000			
00:00:00	-3.575	70.000			
00:00:00	-3.622	70.000			
00:00:00	-3.901	70.000			
00:00:00	-3.657	70.000			
00:00:00	-3.741	70.000			
00:00:00	-3.927	70.000			
00:00:00	-3.724	70.000			
00:00:00	-3.763	70.000			
00:00:00	-3.529	70.000			
00:00:00	-3.341	70.000			
00:00:00	-3.132	70.000			
00:00:00	-2.712	70.000			
00:00:00	-2.683	70.000			
00:00:00	-2.569	70.000			
00:00:00	-2.633	70.000			
00:00:00	-2.882	70.000			
00:00:00	-2.740	70.000			
00:00:00	-2.781	70.000			
00:00:00	-2.568	70.000			
00:00:00	-2.334	70.000			
00:00:00	-2.375	70.000			
00:00:00	-2.146	70.000			
00:00:00	-2.135	70.000			
00:00:00	-2.152	70.000			
00:00:00	-2.073	70.000			
00:00:00	-2.524	70.000			
00:00:00	-2.663	70.000			
00:00:00	-2.993	70.000			
00:00:00	-3.156	70.000			
00:00:00	-3.064	70.000			
00:00:00	-3.331	70.000			
00:00:00	-3.198	70.000			
00:00:00	-3.181	70.000			
00:00:00	-3.222	70.000			
00:00:00	-2.988	70.000			
00:00:00	-3.043	70.000			
00:00:00	-2.795	70.000			
00:00:00	-2.349	70.000			
00:00:00	-1.706	70.000			
00:00:00	-0.345	70.000			
00:00:00	0.836	70.000			
00:00:00	2.432	70.000			
00:00:00	4.223	70.000			
00:00:00	5.895	70.000			
00:00:00	7.910	70.000			
00:00:00	9.660	70.000			
00:00:00	11.306	70.000			
00:00:00	12.846	70.000			
00:00:00	13.857	70.000			
00:00:00	14.892	70.000			
00:00:00	15.505	70.000			
00:00:00	15.943	70.000			
00:00:00	16.498	70.000			
00:00:00	16.282	70.000			
00:00:00	16.035	70.000			
00:00:00	15.552	70.000			
00:00:00	14.898	70.000			
00:00:00	14.316	70.000			
00:00:00	13.341	70.000			
00:00:00	12.338	70.000			
00:00:00	11.498	70.000			
00:00:00	10.496	70.000			
00:00:00	9.847	70.000			
00:00:00	9.024	70.000			
00:00:00	8.171	70.000			
00:00:00	7.467	70.000			
00:00:00	6.274	70.000			
00:00:00	5.432	70.000			
00:00:00	4.483	70.000			
00:00:00	3.487	70.000			
00:00:00	2.628	70.000			
00:00:00	1.408	70.000			
00:00:00	0.498	70.000			
00:00:00	-0.294	70.000			
00:00:00	-1.070	70.000			
00:00:00	-1.443	70.000			
00:00:00	-1.994	70.000			
00:00:00	-2.094	70.000			
00:00:00	-2.085	70.000			
00:00:00	-2.168	70.000			
00:00:00	-1.729	70.000			
00:00:00	-1.740	70.000			
00:00:00	-1.497	70.000			
00:00:00	-1.220	70.000			
00:00:00	-1.141	70.000			
00:00:00	-0.828	70.000			
00:00:00	-0.891	70.000			
00:00:00	-1.023	70.000			
00:00:00	-1.012	70.000			
00:00:00	-1.301	70.000			
00:00:00	-1.147	70.000			
00:00:00	-1.341	70.000			
00:00:00	-1.580	70.000			
00:00:00	-1.686	70.000			
00:00:00	-2.006	70.000			
00:00:01	-2.023	70.000			
00:00:01	-2.126	70.000			
00:00:01	-2.424	70.000			
00:00:01	-2.261	70.000			
00:00:01	-2.428	70.000			
00:00:01	-2.462	70.000			
00:00:01	-2.449	70.000			
00:00:01	-2.648	70.000			
00:00:01	-2.672	70.000			
00:00:01	-3.126	70.000			
00:00:01	-3.308	70.000			
00:00:01	-3.435	70.000			
00:00:01	-3.747	70.000			
00:00:01	-3.670	70.000			
00:00:01	-3.729	70.000			
00:00:01	-3.677	70.000			
00:00:01	-3.590	70.000			
00:00:01	-3.813	70.000			
00:00:01	-3.605	70.000			
00:00:01	-3.358	70.000			
00:00:01	-3.469	70.000			
00:00:01	-3.220	70.000			
00:00:01	-3.201	70.000			
00:00:01	-2.867	70.000			
00:00:01	-2.677	70.000			
00:00:01	-2.736	70.000			
00:00:01	-2.522	70.000			
00:00:01	-2.631	70.000			
00:00:01	-2.637	70.000			
00:00:01	-2.408	70.000			
00:00:01	-2.535	70.000			
00:00:01	-2.289	70.000			
00:00:01	-2.318	70.000			
00:00:01	-2.232	70.000			
00:00:01	-2.100	70.000			
00:00:01	-2.335	70.000			
00:00:01	-2.349	70.000			
00:00:01	-2.798	70.000			
00:00:01	-3.020	70.000			
00:00:01	-2.957	70.000			
00:00:01	-3.081	70.000			
00:00:01	-2.915	70.000			
00:00:01	-2.901	70.000			
00:00:01	-2.964	70.000			
00:00:01	-2.423	70.000			
00:00:01	-2.056	70.000			
00:00:01	-1.140	70.000			
00:00:01	0.130	70.000			
00:00:01	1.310	70.000			
00:00:01	2.904	70.000			
00:00:01	4.354	70.000			
00:00:01	6.141	70.000			
00:00:01	8.080	70.000			
00:00:01	9.696	70.000			
00:00:01	11.408	70.000			
00:00:01	12.511	70.000			
00:00:01	13.583	70.000			
00:00:01	14.601	70.000			
00:00:01	15.013	70.000			
00:00:01	15.388	70.000			
00:00:01	15.379	70.000			
00:00:01	15.130	70.000			
00:00:01	14.914	70.000			
00:00:01	14.183	70.000			
00:00:01	13.723	70.000			
00:00:01	13.058	70.000			
00:00:01	12.090	70.000			
00:00:01	11.401	70.000			
00:00:01	10.375	69.189			
00:00:01	9.514	69.189			
00:00:01	8.635	69.189			
00:00:01	7.574	69.189			
00:00:01	6.885	69.194			
00:00:01	5.856	69.194			
00:00:01	4.932	69.194			
00:00:01	4.126	69.194			
00:00:01	3.080	69.194			
00:00:01	2.248	69.194			
00:00:01	1.230	69.194			
00:00:01	0.513	69.194			
00:00:01	0.034	69.194			
00:00:01	-0.763	69.194			
00:00:01	-1.150	69.194			
00:00:01	-1.456	69.194			
00:00:01	-1.740	69.194			
00:00:01	-1.743	69.194			
00:00:01	-2.003	69.194			
00:00:01	-1.894	69.194			
00:00:01	-1.747	69.194			
00:00:01	-1.659	69.194			
00:00:01	-1.185	69.194			
00:00:01	-1.181	69.194			
00:00:01	-1.207	69.194			
00:00:01	-1.302	69.194			
00:00:01	-1.486	69.194			
00:00:01	-1.132	69.194			
00:00:01	-1.211	69.194			
00:00:01	-1.363	69.194			
00:00:01	-1.485	69.194			
00:00:01	-2.007	69.194			
00:00:01	-2.046	69.194			
00:00:01	-2.264	69.194			
00:00:01	-2.424	69.194			
00:00:01	-2.392	69.194			
00:00:01	-2.726	69.194			
00:00:01	-2.760	69.194			
00:00:01	-2.845	69.194			
00:00:01	-3.088	69.194			
00:00:01	-3.014	69.194			
00:00:01	-3.116	69.194			
00:00:01	-2.880	69.194			
00:00:01	-2.748	69.194			
00:00:01	-3.037	69.194			
00:00:01	-2.946	69.194			
00:00:01	-2.942	69.194			
00:00:01	-2.762	69.194			
00:00:01	-2.846	69.194			
00:00:01	-3.325	69.194			
00:00:01	-3.437	69.194			
00:00:01	-3.678	69.194			
00:00:01	-3.739	69.194			
00:00:01	-3.498	69.194			
00:00:01	-3.575	69.194			
00:00:01	-3.446	69.194			
00:00:01	-3.569	69.194			
00:00:01	-3.690	69.194			
00:00:01	-3.389	69.194			
00:00:01	-3.413	69.194			
00:00:02	-3.096	69.194			
00:00:02	-2.774	69.194			
00:00:02	-2.658	69.194			
00:00:02	-2.293	69.194			
00:00:02	-2.325	69.194			
00:00:02	-2.156	69.194			
00:00:02	-2.060	69.194			
00:00:02	-2.126	69.194			
00:00:02	-1.998	69.194			
00:00:02	-2.344	69.194			
00:00:02	-2.377	69.194			
00:00:02	-2.099	69.194			
00:00:02	-2.311	69.194			
00:00:02	-2.249	69.194			
00:00:02	-2.295	69.194			
00:00:02	-2.341	69.194			
00:00:02	-2.143	69.194			
00:00:02	-2.308	69.194			
00:00:02	-2.161	69.194			
00:00:02	-2.369	69.194			
00:00:02	-2.548	69.194			
00:00:02	-2.213	69.194			
00:00:02	-2.067	69.194			
00:00:02	-1.228	69.194			
00:00:02	0.093	69.194			
00:00:02	1.476	69.194			
00:00:02	3.481	69.194			
00:00:02	5.258	69.194			
00:00:02	7.356	69.194			
00:00:02	9.251	69.194			
00:00:02	10.723	69.194			
00:00:02	12.362	69.194			
00:00:02	13.473	69.194			
00:00:02	14.559	69.194			
00:00:02	15.513	69.194			
00:00:02	15.814	69.194			
00:00:02	16.142	69.194			
00:00:02	16.058	69.194			
00:00:02	15.683	69.194			
00:00:02	15.371	69.194			
00:00:02	14.631	69.194			
00:00:02	13.971	69.194			
00:00:02	13.119	69.194			
00:00:02	12.216	69.194			
00:00:02	11.692	73.846			
00:00:02	10.792	73.846			
00:00:02	9.980	73.846			
00:00:02	9.112	73.846			
00:00:02	8.249	73.851			
00:00:02	7.693	73.851			
00:00:02	6.443	73.851			
00:00:02	5.296	73.851			
00:00:02	4.153	73.851			
00:00:02	2.968	73.851			
00:00:02	2.331	73.851			
00:00:02	1.388	73.851			
00:00:02	0.443	73.851			
00:00:02	-0.380	73.851			
00:00:02	-1.272	73.851			
00:00:02	-1.496	73.851			
00:00:02	-1.865	73.851			
00:00:02	-2.221	73.851			
00:00:02	-2.206	73.851			
00:00:02	-2.428	73.851			
00:00:02	-2.363	73.851			
00:00:02	-2.019	73.851			
00:00:02	-1.784	73.851			
00:00:02	-1.473	73.851			
00:00:02	-1.525	73.851			
00:00:02	-1.266	73.851			
00:00:02	-0.995	73.851			
00:00:02	-0.992	73.851			
00:00:02	-0.776	73.851			
00:00:02	-1.046	73.851			
00:00:02	-1.145	73.851			
00:00:02	-1.073	73.851			
00:00:02	-1.213	73.851			
00:00:02	-1.070	73.851			
00:00:02	-1.350	73.851			
00:00:02	-1.525	73.851			
00:00:02	-1.321	73.851			
00:00:02	-1.404	73.851			
00:00:02	-1.304	73.851			
00:00:02	-1.469	73.851			
00:00:02	-1.905	73.851			
00:00:02	-2.118	73.851			
00:00:02	-2.565	73.851			
00:00:02	-2.604	73.851			
00:00:02	-2.648	73.851			
00:00:02	-2.756	73.851			
00:00:02	-2.628	73.851			
00:00:02	-3.003	73.851			
00:00:02	-3.084	73.851			
00:00:02	-3.103	73.851			
00:00:02	-3.315	73.851			
00:00:02	-3.107	73.851			
00:00:02	-3.143	73.851			
00:00:02	-3.027	73.851			
00:00:02	-2.663	73.851			
00:00:02	-2.594	73.851			
00:00:02	-2.218	73.851			
00:00:02	-2.144	73.851			
00:00:02	-2.175	73.851			
00:00:02	-2.031	73.851			
00:00:02	-2.285	73.851			
00:00:02	-2.231	73.851			
00:00:02	-2.430	73.851			
00:00:02	-2.578	73.851			
00:00:02	-2.362	73.851			
00:00:02	-2.484	73.851			
00:00:02	-2.346	73.851			
00:00:02	-2.234	73.851			
00:00:02	-2.385	73.851			
00:00:02	-2.299	73.851			
00:00:02	-2.471	73.851			
00:00:02	-2.481	73.851			
00:00:02	-2.485	73.851			
00:00:02	-2.846	73.851			
00:00:02	-2.846	73.851			
00:00:02	-2.928	73.851			
00:00:02	-2.957	73.851			
00:00:02	-2.872	73.851			
00:00:02	-3.206	73.851			
00:00:02	-3.318	73.851			
00:00:02	-3.737	73.851			
00:00:02	-4.074	73.851			
00:00:02	-3.930	73.851			
00:00:02	-3.989	73.851			
00:00:03	-3.607	73.851			
00:00:03	-3.006	73.851			
00:00:03	-2.283	73.851			
00:00:03	-0.845	73.851			
00:00:03	0.480	73.851			
00:00:03	2.343	73.851			
00:00:03	4.387	73.851			
00:00:03	6.289	73.851			
00:00:03	8.529	73.851			
00:00:03	10.219	73.851			
00:00:03	11.816	73.851			
00:00:03	13.400	73.851			
00:00:03	14.371	73.851			
00:00:03	15.195	73.851			
00:00:03	15.513	73.851			
00:00:03	15.459	73.851			
00:00:03	15.485	73.851			
00:00:03	15.064	73.851			
00:00:03	14.888	73.851			
00:00:03	14.270	73.851			
00:00:03	13.477	73.851			
00:00:03	12.892	73.851			
00:00:03	11.943	73.851			
00:00:03	11.176	73.851			
00:00:03	10.452	71.111			
00:00:03	9.359	71.111			
00:00:03	8.435	71.111			
00:00:03	7.298	71.111			
00:00:03	6.619	71.116			
00:00:03	5.974	71.116			
00:00:03	4.883	71.116			
00:00:03	4.041	71.116			
00:00:03	2.870	71.116			
00:00:03	1.703	71.116			
00:00:03	0.839	71.116			
00:00:03	-0.079	71.116			
00:00:03	-0.484	71.116			
00:00:03	-1.229	71.116			
00:00:03	-1.833	71.116			
00:00:03	-1.906	71.116			
00:00:03	-2.037	71.116			
00:00:03	-1.773	71.116			
00:00:03	-1.754	71.116			
00:00:03	-2.153	71.116			
00:00:03	-2.200	71.116			
00:00:03	-2.241	71.116			
00:00:03	-1.891	71.116			
00:00:03	-1.533	71.116			
00:00:03	-1.441	71.116			
00:00:03	-1.118	71.116			
00:00:03	-1.046	71.116			
00:00:03	-0.854	71.116			
00:00:03	-0.666	71.116			
00:00:03	-0.728	71.116			
00:00:03	-0.521	71.116			
00:00:03	-0.749	71.116			
00:00:03	-1.068	71.116			
00:00:03	-1.119	71.116			
00:00:03	-1.476	71.116			
00:00:03	-1.419	71.116			
00:00:03	-1.713	71.116			
00:00:03	-2.182	71.116			
00:00:03	-2.297	71.116			
00:00:03	-2.768	71.116			
00:00:03	-3.054	71.116			
00:00:03	-3.449	71.116			
00:00:03	-3.834	71.116			
00:00:03	-3.733	71.116			
00:00:03	-4.125	71.116			
00:00:03	-4.362	71.116			
00:00:03	-4.491	71.116			
00:00:03	-4.686	71.116			
00:00:03	-4.449	71.116			
00:00:03	-4.524	71.116			
00:00:03	-4.445	71.116			
00:00:03	-4.248	71.116			
00:00:03	-4.459	71.116			
00:00:03	-4.341	71.116			
00:00:03	-4.435	71.116			
00:00:03	-4.508	71.116			
00:00:03	-4.268	71.116			
00:00:03	-4.309	71.116			
00:00:03	-4.138	71.116			
00:00:03	-4.081	71.116			
00:00:03	-4.135	71.116			
00:00:03	-3.836	71.116			
00:00:03	-3.631	71.116			
00:00:03	-3.297	71.116			
00:00:03	-3.098	71.116			
00:00:03	-3.181	71.116			
00:00:03	-2.848	71.116			
00:00:03	-2.805	71.116			
00:00:03	-2.634	71.116			
00:00:03	-2.355	71.116			
00:00:03	-2.431	71.116			
00:00:03	-2.343	71.116			
00:00:03	-2.493	71.116			
00:00:03	-2.627	71.116			
00:00:03	-2.574	71.116			
00:00:03	-2.766	71.116			
00:00:03	-2.890	71.116			
00:00:03	-3.205	71.116			
00:00:03	-3.540	71.116			
00:00:03	-3.544	71.116			
00:00:03	-3.791	71.116			
00:00:03	-3.819	71.116			
00:00:03	-3.949	71.116			
00:00:03	-4.098	71.116			
00:00:03	-3.790	71.116			
00:00:03	-3.745	71.116			
00:00:03	-3.115	71.116			
00:00:03	-2.229	71.116			
00:00:03	-1.095	71.116			
00:00:03	0.511	71.116			
00:00:03	2.083	71.116			
00:00:03	4.075	71.116			
00:00:03	6.375	71.116			
00:00:03	8.620	71.116			
00:00:03	11.128	71.116			
00:00:03	12.958	71.116			
00:00:03	14.332	71.116			
00:00:03	15.559	71.116			
00:00:03	16.323	71.116			
00:00:03	17.095	71.116			
00:00:03	17.212	71.116			
00:00:03	16.900	71.116			
00:00:03	16.699	71.116			
00:00:03	16.010	71.116			
00:00:04	15.327	71.116			
00:00:04	14.468	71.116			
00:00:04	13.349	71.116			
00:00:04	12.514	71.116			
00:00:04	11.262	71.111			
00:00:04	10.222	71.111			
00:00:04	9.347	71.111			
00:00:04	8.201	71.111			
00:00:04	7.366	71.116			
00:00:04	6.125	71.116			
00:00:04	5.065	71.116			
00:00:04	4.149	71.116			
00:00:04	2.985	71.116			
00:00:04	2.176	71.116			
00:00:04	1.069	71.116			
00:00:04	-0.158	71.116			
00:00:04	-0.988	71.116			
00:00:04	-1.950	71.116			
00:00:04	-2.381	71.116			
00:00:04	-2.750	71.116			
00:00:04	-3.077	71.116			
00:00:04	-3.071	71.116			
00:00:04	-3.380	71.116			
00:00:04	-3.334	71.116			
00:00:04	-3.250	71.116			
00:00:04	-3.184	71.116			
00:00:04	-2.638	71.116			
00:00:04	-2.370	71.116			
00:00:04	-2.037	71.116			
00:00:04	-1.739	71.116			
00:00:04	-1.600	71.116			
00:00:04	-1.152	71.116			
00:00:04	-0.993	71.116			
00:00:04	-1.078	71.116			
00:00:04	-1.088	71.116			
00:00:04	-1.299	71.116			
00:00:04	-1.263	71.116			
00:00:04	-1.511	71.116			
00:00:04	-1.820	71.116			
00:00:04	-1.632	71.116			
00:00:04	-1.932	71.116			
00:00:04	-1.847	71.116			
00:00:04	-1.947	71.116			
00:00:04	-2.294	71.116			
00:00:04	-2.425	71.116			
00:00:04	-2.838	71.116			
00:00:04	-3.032	71.116			
00:00:04	-3.205	71.116			
00:00:04	-3.695	71.116			
00:00:04	-3.763	71.116			
00:00:04	-4.125	71.116			
00:00:04	-4.369	71.116			
00:00:04	-4.432	71.116			
00:00:04	-4.736	71.116			
00:00:04	-4.630	71.116			
00:00:04	-4.715	71.116			
00:00:04	-4.790	71.116			
00:00:04	-4.586	71.116			
00:00:04	-4.715	71.116			
00:00:04	-4.532	71.116			
00:00:04	-4.588	71.116			
00:00:04	-4.678	71.116			
00:00:04	-4.397	71.116			
00:00:04	-4.594	71.116			
00:00:04	-4.506	71.116			
00:00:04	-4.369	71.116			
00:00:04	-4.459	71.116			
00:00:04	-4.135	71.116			
00:00:04	-4.069	71.116			
00:00:04	-3.908	71.116			
00:00:04	-3.748	71.116			
00:00:04	-3.722	71.116			
00:00:04	-3.251	71.116			
00:00:04	-3.310	71.116			
00:00:04	-3.329	71.116			
00:00:04	-3.156	71.116			
00:00:04	-3.260	71.116			
00:00:04	-3.071	71.116			
00:00:04	-3.156	71.116			
00:00:04	-3.330	71.116			
00:00:04	-3.248	71.116			
00:00:04	-3.505	71.116			
00:00:04	-3.422	71.116			
00:00:04	-3.327	71.116			
00:00:04	-3.574	71.116			
00:00:04	-3.618	71.116			
00:00:04	-3.925	71.116			
00:00:04	-3.926	71.116			
00:00:04	-3.861	71.116			
00:00:04	-4.093	71.116			
00:00:04	-3.953	71.116			
00:00:04	-3.738	71.116			
00:00:04	-3.200	71.116			
00:00:04	-2.184	71.116			
00:00:04	-1.233	71.116			
00:00:04	0.316	71.116			
00:00:04	2.029	71.116			
00:00:04	3.947	71.116			
00:00:04	6.253	71.116			
00:00:04	8.241	71.116			
00:00:04	10.364	71.116			
00:00:04	12.044	71.116			
00:00:04	13.481	71.116			
00:00:04	14.735	71.116			
00:00:04	15.291	71.116			
00:00:04	15.777	71.116			
00:00:04	15.983	71.116			
00:00:04	15.662	71.116			
00:00:04	15.456	71.116			
00:00:04	14.844	71.116			
00:00:04	14.246	71.116			
00:00:04	13.576	71.116			
00:00:04	12.486	71.116			
00:00:04	11.618	71.116			
00:00:04	10.496	71.116			
00:00:04	9.510	71.116			
00:00:04	8.848	69.818			
00:00:04	7.687	69.818			
00:00:04	6.885	69.818			
00:00:04	5.758	69.818			
00:00:04	4.568	69.823			
00:00:04	3.598	69.823			
00:00:04	2.370	69.823			
00:00:04	1.436	69.823			
00:00:04	0.445	69.823			
00:00:04	-0.499	69.823			
00:00:04	-1.148	69.823			
00:00:04	-1.914	69.823			
00:00:05	-2.152	69.823			
00:00:05	-2.403	69.823			
00:00:05	-2.778	69.823			
00:00:05	-2.640	69.823			
00:00:05	-2.674	69.823			
00:00:05	-2.489	69.823			
00:00:05	-2.234	69.823			
00:00:05	-2.242	69.823			
00:00:05	-1.919	69.823			
00:00:05	-1.841	69.823			
00:00:05	-1.730	69.823			
00:00:05	-1.519	69.823			
00:00:05	-1.511	69.823			
00:00:05	-1.155	69.823			
00:00:05	-0.983	69.823			
00:00:05	-0.931	69.823			
00:00:05	-0.803	69.823			
00:00:05	-0.988	69.823			
00:00:05	-0.959	69.823			
00:00:05	-1.098	69.823			
00:00:05	-1.492	69.823			
00:00:05	-1.392	69.823			
00:00:05	-1.709	69.823			
00:00:05	-1.964	69.823			
00:00:05	-2.145	69.823			
00:00:05	-2.469	69.823			
00:00:05	-2.423	69.823			
00:00:05	-2.674	69.823			
00:00:05	-2.814	69.823			
00:00:05	-2.893	69.823			
00:00:05	-3.351	69.823			
00:00:05	-3.466	69.823			
00:00:05	-3.772	69.823			
00:00:05	-3.921	69.823			
00:00:05	-3.911	69.823			
00:00:05	-4.333	69.823			
00:00:05	-4.367	69.823			
00:00:05	-4.493	69.823			
00:00:05	-4.516	69.823			
00:00:05	-4.186	69.823			
00:00:05	-4.392	69.823			
00:00:05	-4.288	69.823			
00:00:05	-4.087	69.823			
00:00:05	-4.114	69.823			
00:00:05	-3.826	69.823			
00:00:05	-3.802	69.823			
00:00:05	-3.517	69.823			
00:00:05	-3.171	69.823			
00:00:05	-3.108	69.823			
00:00:05	-2.815	69.823			
00:00:05	-2.987	69.823			
00:00:05	-3.081	69.823			
00:00:05	-2.786	69.823			
00:00:05	-2.861	69.823			
00:00:05	-2.806	69.823			
00:00:05	-3.072	69.823			
00:00:05	-3.170	69.823			
00:00:05	-3.036	69.823			
00:00:05	-3.318	69.823			
00:00:05	-3.304	69.823			
00:00:05	-3.479	69.823			
00:00:05	-3.814	69.823			
00:00:05	-3.724	69.823			
00:00:05	-3.897	69.823			
00:00:05	-3.816	69.823			
00:00:05	-3.576	69.823			
00:00:05	-3.543	69.823			
00:00:05	-3.069	69.823			
00:00:05	-2.690	69.823			
00:00:05	-1.852	69.823			
00:00:05	-0.775	69.823			
00:00:05	0.607	69.823			
00:00:05	2.594	69.823			
00:00:05	4.439	69.823			
00:00:05	6.480	69.823			
00:00:05	8.762	69.823			
00:00:05	10.620	69.823			
00:00:05	12.529	69.823			
00:00:05	13.817	69.823			
00:00:05	14.697	69.823			
00:00:05	15.745	69.823			
00:00:05	16.199	69.823			
00:00:05	16.438	69.823			
00:00:05	16.308	69.823			
00:00:05	15.782	69.823			
00:00:05	15.281	69.823			
00:00:05	14.421	69.823			
00:00:05	13.662	69.823			
00:00:05	12.638	69.823			
00:00:05	11.506	69.823			
00:00:05	10.768	69.823			
00:00:05	9.685	69.823			
00:00:05	8.793	73.846			
00:00:05	8.077	73.846			
00:00:05	6.849	73.846			
00:00:05	5.866	73.846			
00:00:05	4.675	73.851			
00:00:05	3.649	73.851			
00:00:05	2.813	73.851			
00:00:05	1.679	73.851			
00:00:05	0.888	73.851			
00:00:05	-0.051	73.851			
00:00:05	-0.930	73.851			
00:00:05	-1.436	73.851			
00:00:05	-2.103	73.851			
00:00:05	-2.244	73.851			
00:00:05	-2.320	73.851			
00:00:05	-2.639	73.851			
00:00:05	-2.595	73.851			
00:00:05	-2.777	73.851			
00:00:05	-2.692	73.851			
00:00:05	-2.477	73.851			
00:00:05	-2.586	73.851			
00:00:05	-2.169	73.851			
00:00:05	-2.096	73.851			
00:00:05	-1.914	73.851			
00:00:05	-1.527	73.851			
00:00:05	-1.673	73.851			
00:00:05	-1.570	73.851			
00:00:05	-1.529	73.851			
00:00:05	-1.443	73.851			
00:00:05	-1.241	73.851			
00:00:05	-1.515	73.851			
00:00:05	-1.463	73.851			
00:00:05	-1.566	73.851			
00:00:05	-1.822	73.851			
00:00:05	-1.754	73.851			
00:00:05	-1.960	73.851			
00:00:06	-2.137	73.851			
00:00:06	-2.367	73.851			
00:00:06	-2.687	73.851			
00:00:06	-2.752	73.851			
00:00:06	-3.199	73.851			
00:00:06	-3.494	73.851			
00:00:06	-3.572	73.851			
00:00:06	-3.796	73.851			
00:00:06	-3.692	73.851			
00:00:06	-3.988	73.851			
00:00:06	-4.262	73.851			
00:00:06	-4.156	73.851			
00:00:06	-4.238	73.851			
00:00:06	-3.858	73.851			
00:00:06	-4.042	73.851			
00:00:06	-4.203	73.851			
00:00:06	-3.979	73.851			
00:00:06	-4.043	73.851			
00:00:06	-3.973	73.851			
00:00:06	-4.101	73.851			
00:00:06	-4.181	73.851			
00:00:06	-3.827	73.851			
00:00:06	-3.855	73.851			
00:00:06	-3.744	73.851			
00:00:06	-3.483	73.851			
00:00:06	-3.588	73.851			
00:00:06	-3.146	73.851			
00:00:06	-3.045	73.851			
00:00:06	-2.866	73.851			
00:00:06	-2.479	73.851			
00:00:06	-2.457	73.851			
00:00:06	-2.131	73.851			
00:00:06	-2.118	73.851			
00:00:06	-2.276	73.851			
00:00:06	-2.237	73.851			
00:00:06	-2.596	73.851			
00:00:06	-2.663	73.851			
00:00:06	-2.765	73.851			
00:00:06	-2.992	73.851			
00:00:06	-2.952	73.851			
00:00:06	-2.928	73.851			
00:00:06	-2.772	73.851			
00:00:06	-2.649	73.851			
00:00:06	-2.518	73.851			
00:00:06	-1.720	73.851			
00:00:06	-1.036	73.851			
00:00:06	-0.025	73.851			
00:00:06	1.455	73.851			
00:00:06	3.056	73.851			
00:00:06	5.210	73.851			
00:00:06	7.280	73.851			
00:00:06	9.350	73.851			
00:00:06	11.364	73.851			
00:00:06	12.796	73.851			
00:00:06	14.319	73.851			
00:00:06	15.397	73.851			
00:00:06	16.159	73.851			
00:00:06	16.870	73.851			
00:00:06	16.973	73.851			
00:00:06	17.073	73.851			
00:00:06	16.715	73.851			
00:00:06	16.070	73.851			
00:00:06	15.612	73.851			
00:00:06	14.611	73.851			
00:00:06	13.681	73.851			
00:00:06	12.604	73.851			
00:00:06	11.364	73.851			
00:00:06	10.611	73.851			
00:00:06	9.654	73.143			
00:00:06	8.833	73.143			
00:00:06	7.984	73.143			
00:00:06	6.738	73.143			
00:00:06	5.795	73.148			
00:00:06	4.749	73.148			
00:00:06	3.768	73.148			
00:00:06	2.752	73.148			
00:00:06	1.416	73.148			
00:00:06	0.546	73.148			
00:00:06	-0.420	73.148			
00:00:06	-1.294	73.148			
00:00:06	-1.772	73.148			
00:00:06	-2.381	73.148			
00:00:06	-2.457	73.148			
00:00:06	-2.497	73.148			
00:00:06	-2.679	73.148			
00:00:06	-2.496	73.148			
00:00:06	-2.426	73.148			
00:00:06	-2.221	73.148			
00:00:06	-1.993	73.148			
00:00:06	-2.030	73.148			
00:00:06	-1.585	73.148			
00:00:06	-1.304	73.148			
00:00:06	-1.054	73.148			
00:00:06	-0.785	73.148			
00:00:06	-0.984	73.148			
00:00:06	-0.905	73.148			
00:00:06	-1.008	73.148			
00:00:06	-1.065	73.148			
00:00:06	-0.801	73.148			
00:00:06	-0.969	73.148			
00:00:06	-0.882	73.148			
00:00:06	-0.975	73.148			
00:00:06	-1.211	73.148			
00:00:06	-1.253	73.148			
00:00:06	-1.568	73.148			
00:00:06	-1.648	73.148			
00:00:06	-1.776	73.148			
00:00:06	-2.087	73.148			
00:00:06	-2.113	73.148			
00:00:06	-2.459	73.148			
00:00:06	-2.570	73.148			
00:00:06	-2.638	73.148			
00:00:06	-3.100	73.148			
00:00:06	-3.305	73.148			
00:00:06	-3.605	73.148			
00:00:06	-3.711	73.148			
00:00:06	-3.616	73.148			
00:00:06	-3.853	73.148			
00:00:06	-3.680	73.148			
00:00:06	-3.775	73.148			
00:00:06	-3.918	73.148			
00:00:06	-3.779	73.148			
00:00:06	-4.011	73.148			
00:00:06	-3.862	73.148			
00:00:06	-3.731	73.148			
00:00:06	-3.650	73.148			
00:00:06	-3.269	73.148			
00:00:06	-3.339	73.148			
00:00:07	-3.113	73.148			
00:00:07	-2.798	73.148			
00:00:07	-2.907	73.148			
00:00:07	-2.613	73.148			
00:00:07	-2.606	73.148			
00:00:07	-2.546	73.148			
00:00:07	-2.269	73.148			
00:00:07	-2.236	73.148			
00:00:07	-2.155	73.148			
00:00:07	-2.402	73.148			
00:00:07	-2.446	73.148			
00:00:07	-2.334	73.148			
00:00:07	-2.524	73.148			
00:00:07	-2.532	73.148			
00:00:07	-2.650	73.148			
00:00:07	-2.820	73.148			
00:00:07	-2.612	73.148			
00:00:07	-2.633	73.148			
00:00:07	-2.523	73.148			
00:00:07	-2.474	73.148			
00:00:07	-2.362	73.148			
00:00:07	-1.664	73.148			
00:00:07	-0.879	73.148			
00:00:07	0.406	73.148			
00:00:07	1.946	73.148			
00:00:07	3.462	73.148			
00:00:07	5.494	73.148			
00:00:07	7.465	73.148			
00:00:07	9.548	73.148			
00:00:07	11.593	73.148			
00:00:07	12.946	73.148			
00:00:07	14.322	73.148			
00:00:07	15.290	73.148			
00:00:07	15.908	73.148			
00:00:07	16.330	73.148			
00:00:07	16.217	73.148			
00:00:07	16.110	73.148			
00:00:07	15.615	73.148			
00:00:07	14.997	73.148			
00:00:07	14.434	73.148			
00:00:07	13.260	73.148			
00:00:07	12.464	73.148			
00:00:07	11.533	73.148			
00:00:07	10.333	73.148			
00:00:07	9.424	73.846			
00:00:07	8.232	73.846			
00:00:07	7.283	73.846			
00:00:07	6.491	73.846			
00:00:07	5.367	73.851			
00:00:07	4.592	73.851			
00:00:07	3.608	73.851			
00:00:07	2.632	73.851			
00:00:07	1.853	73.851			
00:00:07	0.871	73.851			
00:00:07	0.259	73.851			
00:00:07	-0.569	73.851			
00:00:07	-1.301	73.851			
00:00:07	-1.695	73.851			
00:00:07	-2.212	73.851			
00:00:07	-2.203	73.851			
00:00:07	-2.249	73.851			
00:00:07	-2.436	73.851			
00:00:07	-2.040	73.851			
00:00:07	-2.006	73.851			
00:00:07	-1.863	73.851			
00:00:07	-1.513	73.851			
00:00:07	-1.401	73.851			
00:00:07	-0.981	73.851			
00:00:07	-0.962	73.851			
00:00:07	-1.015	73.851			
00:00:07	-0.855	73.851			
00:00:07	-0.997	73.851			
00:00:07	-0.865	73.851			
00:00:07	-1.007	73.851			
00:00:07	-1.292	73.851			
00:00:07	-1.250	73.851			
00:00:07	-1.551	73.851			
00:00:07	-1.489	73.851			
00:00:07	-1.571	73.851			
00:00:07	-1.829	73.851			
00:00:07	-1.977	73.851			
00:00:07	-2.381	73.851			
00:00:07	-2.426	73.851			
00:00:07	-2.553	73.851			
00:00:07	-2.813	73.851			
00:00:07	-2.837	73.851			
00:00:07	-3.132	73.851			
00:00:07	-3.217	73.851			
00:00:07	-3.157	73.851			
00:00:07	-3.459	73.851			
00:00:07	-3.351	73.851			
00:00:07	-3.517	73.851			
00:00:07	-3.639	73.851			
00:00:07	-3.700	73.851			
00:00:07	-3.928	73.851			
00:00:07	-3.679	73.851			
00:00:07	-3.703	73.851			
00:00:07	-3.850	73.851			
00:00:07	-3.823	73.851			
00:00:07	-3.985	73.851			
00:00:07	-3.779	73.851			
00:00:07	-3.690	73.851			
00:00:07	-3.578	73.851			
00:00:07	-3.142	73.851			
00:00:07	-3.233	73.851			
00:00:07	-3.081	73.851			
00:00:07	-3.040	73.851			
00:00:07	-3.235	73.851			
00:00:07	-2.823	73.851			
00:00:07	-2.646	73.851			
00:00:07	-2.514	73.851			
00:00:07	-2.344	73.851			
00:00:07	-2.443	73.851			
00:00:07	-2.364	73.851			
00:00:07	-2.604	73.851			
00:00:07	-2.684	73.851			
00:00:07	-2.611	73.851			
00:00:07	-2.935	73.851			
00:00:07	-2.834	73.851			
00:00:07	-2.892	73.851			
00:00:07	-3.098	73.851			
00:00:07	-2.844	73.851			
00:00:07	-2.914	73.851			
00:00:07	-2.625	73.851			
00:00:07	-2.120	73.851			
00:00:07	-1.296	73.851			
00:00:07	0.100	73.851			
00:00:07	1.457	73.851			
00:00:08	3.334	73.851			
00:00:08	5.411	73.851			
00:00:08	7.227	73.851			
00:00:08	9.264	73.851			
00:00:08	10.828	73.851			
00:00:08	12.202	73.851			
00:00:08	13.520	73.851			
00:00:08	14.336	73.851			
00:00:08	15.151	73.851			
00:00:08	15.336	73.851			
00:00:08	15.367	73.851			
00:00:08	15.414	73.851			
00:00:08	14.820	73.851			
00:00:08	14.577	73.851			
00:00:08	13.920	73.851			
00:00:08	12.902	73.851			
00:00:08	12.184	73.851			
00:00:08	11.078	73.851			
00:00:08	10.294	73.851			
00:00:08	9.331	73.851			
00:00:08	8.337	74.563			
00:00:08	7.474	74.563			
00:00:08	6.238	74.563			
00:00:08	5.228	74.563			
00:00:08	4.302	74.568			
00:00:08	3.119	74.568			
00:00:08	2.253	74.568			
00:00:08	1.084	74.568			
00:00:08	0.131	74.568			
00:00:08	-0.486	74.568			
00:00:08	-1.402	74.568			
00:00:08	-1.927	74.568			
00:00:08	-2.335	74.568			
00:00:08	-2.592	74.568			
00:00:08	-2.566	74.568			
00:00:08	-2.737	74.568			
00:00:08	-2.573	74.568			
00:00:08	-2.387	74.568			
00:00:08	-2.145	74.568			
00:00:08	-1.788	74.568			
00:00:08	-1.909	74.568			
00:00:08	-1.672	74.568			
00:00:08	-1.275	74.568			
00:00:08	-1.178	74.568			
00:00:08	-0.852	74.568			
00:00:08	-0.908	74.568			
00:00:08	-0.836	74.568			
00:00:08	-0.656	74.568			
00:00:08	-0.748	74.568			
00:00:08	-0.641	74.568			
00:00:08	-0.835	74.568			
00:00:08	-1.021	74.568			
00:00:08	-1.047	74.568			
00:00:08	-1.330	74.568			
00:00:08	-1.384	74.568			
00:00:08	-1.733	74.568			
00:00:08	-2.121	74.568			
00:00:08	-1.976	74.568			
00:00:08	-2.244	74.568			
00:00:08	-2.275	74.568			
00:00:08	-2.400	74.568			
00:00:08	-2.830	74.568			
00:00:08	-3.039	74.568			
00:00:08	-3.414	74.568			
00:00:08	-3.487	74.568			
00:00:08	-3.631	74.568			
00:00:08	-3.974	74.568			
00:00:08	-3.946	74.568			
00:00:08	-4.082	74.568			
00:00:08	-4.139	74.568			
00:00:08	-3.999	74.568			
00:00:08	-4.110	74.568			
00:00:08	-3.911	74.568			
00:00:08	-3.985	74.568			
00:00:08	-3.929	74.568			
00:00:08	-3.631	74.568			
00:00:08	-3.676	74.568			
00:00:08	-3.311	74.568			
00:00:08	-3.056	74.568			
00:00:08	-2.952	74.568			
00:00:08	-2.719	74.568			
00:00:08	-2.898	74.568			
00:00:08	-2.863	74.568			
00:00:08	-2.864	74.568			
00:00:08	-2.975	74.568			
00:00:08	-2.573	74.568			
00:00:08	-2.436	74.568			
00:00:08	-2.288	74.568			
00:00:08	-2.293	74.568			
00:00:08	-2.676	74.568			
00:00:08	-2.573	74.568			
00:00:08	-2.647	74.568			
00:00:08	-2.672	74.568			
00:00:08	-2.612	74.568			
00:00:08	-2.711	74.568			
00:00:08	-2.448	74.568			
00:00:08	-2.366	74.568			
00:00:08	-2.308	74.568			
00:00:08	-1.765	74.568			
00:00:08	-1.274	74.568			
00:00:08	-0.286	74.568			
00:00:08	0.940	74.568			
00:00:08	2.174	74.568			
00:00:08	4.124	74.568			
00:00:08	5.861	74.568			
00:00:08	7.803	74.568			
00:00:08	9.753	74.568			
00:00:08	11.405	74.568			
00:00:08	13.105	74.568			
00:00:08	14.079	74.568			
00:00:08	14.869	74.568			
00:00:08	15.540	74.568			
00:00:08	15.464	74.568			
00:00:08	15.445	74.568			
00:00:08	15.002	74.568			
00:00:08	14.425	74.568			
00:00:08	13.891	74.568			
00:00:08	12.960	74.568			
00:00:08	12.176	74.568			
00:00:08	11.079	74.568			
00:00:08	10.087	75.294			
00:00:08	9.327	75.294			
00:00:08	8.264	75.294			
00:00:08	7.379	75.294			
00:00:08	6.454	75.299			
00:00:08	5.343	75.299			
00:00:08	4.508	75.299			
00:00:08	3.373	75.299			
00:00:09	2.477	75.299			
00:00:09	1.550	75.299			
00:00:09	0.578	75.299			
00:00:09	0.001	75.299			
00:00:09	-0.756	75.299			
00:00:09	-1.340	75.299			
00:00:09	-1.669	75.299			
00:00:09	-2.120	75.299			
00:00:09	-2.059	75.299			
00:00:09	-1.954	75.299			
00:00:09	-1.792	75.299			
00:00:09	-1.459	75.299			
00:00:09	-1.591	75.299			
00:00:09	-1.294	75.299			
00:00:09	-0.996	75.299			
00:00:09	-0.902	75.299			
00:00:09	-0.653	75.299			
00:00:09	-0.739	75.299			
00:00:09	-0.714	75.299			
00:00:09	-0.666	75.299			
00:00:09	-0.680	75.299			
00:00:09	-0.433	75.299			
00:00:09	-0.671	75.299			
00:00:09	-0.635	75.299			
00:00:09	-0.547	75.299			
00:00:09	-0.869	75.299			
00:00:09	-0.791	75.299			
00:00:09	-0.948	75.299			
00:00:09	-1.080	75.299			
00:00:09	-1.203	75.299			
00:00:09	-1.711	75.299			
00:00:09	-1.855	75.299			
00:00:09	-2.124	75.299			
00:00:09	-2.313	75.299			
00:00:09	-2.369	75.299			
00:00:09	-2.661	75.299			
00:00:09	-2.595	75.299			
00:00:09	-2.586	75.299			
00:00:09	-2.840	75.299			
00:00:09	-2.726	75.299			
00:00:09	-2.985	75.299			
00:00:09	-3.114	75.299			
00:00:09	-3.057	75.299			
00:00:09	-3.126	75.299			
00:00:09	-2.986	75.299			
00:00:09	-3.216	75.299			
00:00:09	-3.173	75.299			
00:00:09	-2.988	75.299			
00:00:09	-3.079	75.299			
00:00:09	-2.820	75.299			
00:00:09	-2.856	75.299			
00:00:09	-2.904	75.299			
00:00:09	-2.603	75.299			
00:00:09	-2.683	75.299			
00:00:09	-2.447	75.299			
00:00:09	-2.391	75.299			
00:00:09	-2.461	75.299			
00:00:09	-2.207	75.299			
00:00:09	-2.284	75.299			
00:00:09	-2.166	75.299			
00:00:09	-2.165	75.299			
00:00:09	-2.324	75.299			
00:00:09	-2.209	75.299			
00:00:09	-2.440	75.299			
00:00:09	-2.401	75.299			
00:00:09	-2.302	75.299			
00:00:09	-2.456	75.299			
00:00:09	-2.153	75.299			
00:00:09	-2.010	75.299			
00:00:09	-1.592	75.299			
00:00:09	-0.861	75.299			
00:00:09	-0.253	75.299			
00:00:09	0.908	75.299			
00:00:09	2.024	75.299			
00:00:09	3.505	75.299			
00:00:09	5.332	75.299			
00:00:09	7.031	75.299			
00:00:09	8.938	75.299			
00:00:09	10.489	75.299			
00:00:09	11.823	75.299			
00:00:09	13.183	75.299			
00:00:09	13.922	75.299			
00:00:09	14.551	75.299			
00:00:09	15.002	75.299			
00:00:09	14.925	75.299			
00:00:09	14.948	75.299			
00:00:09	14.381	75.299			
00:00:09	13.796	75.299			
00:00:09	13.207	75.299			
00:00:09	12.226	75.299			
00:00:09	11.700	75.299			
00:00:09	10.772	75.299			
00:00:09	9.768	76.800			
00:00:09	8.824	76.800			
00:00:09	7.709	76.800			
00:00:09	7.147	76.800			
00:00:09	6.204	76.805			
00:00:09	5.192	76.805			
00:00:09	4.475	76.805			
00:00:09	3.344	76.805			
00:00:09	2.560	76.805			
00:00:09	1.713	76.805			
00:00:09	0.726	76.805			
00:00:09	0.026	76.805			
00:00:09	-0.843	76.805			
00:00:09	-1.324	76.805			
00:00:09	-1.539	76.805			
00:00:09	-1.861	76.805			
00:00:09	-1.692	76.805			
00:00:09	-1.826	76.805			
00:00:09	-1.808	76.805			
00:00:09	-1.667	76.805			
00:00:09	-1.728	76.805			
00:00:09	-1.165	76.805			
00:00:09	-0.889	76.805			
00:00:09	-0.710	76.805			
00:00:09	-0.459	76.805			
00:00:09	-0.605	76.805			
00:00:09	-0.352	76.805			
00:00:09	-0.213	76.805			
00:00:09	-0.278	76.805			
00:00:09	-0.081	76.805			
00:00:09	-0.247	76.805			
00:00:09	-0.324	76.805			
00:00:09	-0.494	76.805			
00:00:09	-0.859	76.805			
00:00:09	-0.862	76.805			
00:00:09	-1.246	76.805			
00:00:10	-1.447	76.805			
00:00:10	-1.596	76.805			
00:00:10	-1.890	76.805			
00:00:10	-1.868	76.805			
00:00:10	-2.169	76.805			
00:00:10	-2.360	76.805			
00:00:10	-2.449	76.805			
00:00:10	-2.768	76.805			
00:00:10	-2.734	76.805			
00:00:10	-2.966	76.805			
00:00:10	-3.297	76.805			
00:00:10	-3.408	76.805			
00:00:10	-3.649	76.805			
00:00:10	-3.633	76.805			
00:00:10	-3.595	76.805			
00:00:10	-3.602	76.805			
00:00:10	-3.233	76.805			
00:00:10	-3.334	76.805			
00:00:10	-3.159	76.805			
00:00:10	-2.914	76.805			
00:00:10	-2.879	76.805			
00:00:10	-2.472	76.805			
00:00:10	-2.454	76.805			
00:00:10	-2.414	76.805			
00:00:10	-2.378	76.805			
00:00:10	-2.477	76.805			
00:00:10	-2.130	76.805			
00:00:10	-2.161	76.805			
00:00:10	-2.132	76.805			
00:00:10	-2.002	76.805			
00:00:10	-2.231	76.805			
00:00:10	-1.996	76.805			
00:00:10	-2.076	76.805			
00:00:10	-2.165	76.805			
00:00:10	-2.061	76.805			
00:00:10	-2.241	76.805			
00:00:10	-2.138	76.805			
00:00:10	-1.924	76.805			
00:00:10	-1.811	76.805			
00:00:10	-1.508	76.805			
00:00:10	-1.419	76.805			
00:00:10	-0.801	76.805			
00:00:10	0.164	76.805			
00:00:10	1.201	76.805			
00:00:10	2.813	76.805			
00:00:10	4.303	76.805			
00:00:10	6.087	76.805			
00:00:10	8.167	76.805			
00:00:10	10.064	76.805			
00:00:10	12.056	76.805			
00:00:10	13.430	76.805			
00:00:10	14.512	76.805			
00:00:10	15.615	76.805			
00:00:10	16.212	76.805			
00:00:10	16.685	76.805			
00:00:10	16.701	76.805			
00:00:10	16.364	76.805			
00:00:10	16.105	76.805			
00:00:10	15.329	76.805			
00:00:10	14.654	76.805			
00:00:10	13.850	76.805			
00:00:10	12.868	76.805			
00:00:10	12.233	76.805			
00:00:10	11.059	76.805			
00:00:10	10.132	77.576			
00:00:10	9.335	77.576			
00:00:10	8.363	77.576			
00:00:10	7.857	77.576			
00:00:10	6.908	77.581			
00:00:10	5.764	77.581			
00:00:10	4.707	77.581			
00:00:10	3.522	77.581			
00:00:10	2.761	77.581			
00:00:10	1.836	77.581			
00:00:10	0.969	77.581			
00:00:10	0.425	77.581			
00:00:10	-0.301	77.581			
00:00:10	-0.515	77.581			
00:00:10	-0.809	77.581			
00:00:10	-1.268	77.581			
00:00:10	-1.374	77.581			
00:00:10	-1.811	77.581			
00:00:10	-1.737	77.581			
00:00:10	-1.491	77.581			
00:00:10	-1.525	77.581			
00:00:10	-1.185	77.581			
00:00:10	-1.146	77.581			
00:00:10	-0.862	77.581			
00:00:10	-0.474	77.581			
00:00:10	-0.466	77.581			
00:00:10	-0.199	77.581			
00:00:10	-0.299	77.581			
00:00:10	-0.378	77.581			
00:00:10	-0.298	77.581			
00:00:10	-0.449	77.581			
00:00:10	-0.463	77.581			
00:00:10	-0.713	77.581			
00:00:10	-0.932	77.581			
00:00:10	-0.886	77.581			
00:00:10	-1.212	77.581			
00:00:10	-1.310	77.581			
00:00:10	-1.524	77.581			
00:00:10	-1.840	77.581			
00:00:10	-1.940	77.581			
00:00:10	-2.358	77.581			
00:00:10	-2.515	77.581			
00:00:10	-2.438	77.581			
00:00:10	-2.631	77.581			
00:00:10	-2.649	77.581			
00:00:10	-2.993	77.581			
00:00:10	-3.027	77.581			
00:00:10	-2.933	77.581			
00:00:10	-3.106	77.581			
00:00:10	-2.952	77.581			
00:00:10	-3.118	77.581			
00:00:10	-3.253	77.581			
00:00:10	-3.151	77.581			
00:00:10	-3.258	77.581			
00:00:10	-2.972	77.581			
00:00:10	-2.660	77.581			
00:00:10	-2.645	77.581			
00:00:10	-2.270	77.581			
00:00:10	-2.456	77.581			
00:00:10	-2.414	77.581			
00:00:10	-2.339	77.581			
00:00:10	-2.421	77.581			
00:00:10	-2.125	77.581			
00:00:10	-2.212	77.581			
00:00:11	-2.187	77.581			
00:00:11	-1.991	77.581			
00:00:11	-2.090	77.581			
00:00:11	-1.836	77.581			
00:00:11	-1.842	77.581			
00:00:11	-1.840	77.581			
00:00:11	-1.771	77.581			
00:00:11	-1.961	77.581			
00:00:11	-1.875	77.581			
00:00:11	-1.914	77.581			
00:00:11	-1.794	77.581			
00:00:11	-1.421	77.581			
00:00:11	-1.267	77.581			
00:00:11	-0.560	77.581			
00:00:11	0.406	77.581			
00:00:11	1.516	77.581			
00:00:11	3.272	77.581			
00:00:11	4.818	77.581			
00:00:11	6.713	77.581			
00:00:11	8.608	77.581			
00:00:11	10.306	77.581			
00:00:11	12.240	77.581			
00:00:11	13.617	77.581			
00:00:11	14.624	77.581			
00:00:11	15.559	77.581			
00:00:11	15.988	77.581			
00:00:11	16.470	77.581			
00:00:11	16.537	77.581			
00:00:11	16.283	77.581			
00:00:11	15.931	77.581			
00:00:11	15.190	77.581			
00:00:11	14.494	77.581			
00:00:11	13.774	77.581			
00:00:11	13.050	77.581			
00:00:11	12.400	77.581			
00:00:11	11.398	77.581			
00:00:11	10.636	76.800			
00:00:11	9.835	76.800			
00:00:11	8.823	76.800			
00:00:11	7.946	76.800			
00:00:11	6.756	76.805			
00:00:11	5.940	76.805			
00:00:11	5.225	76.805			
00:00:11	4.183	76.805			
00:00:11	3.428	76.805			
00:00:11	2.277	76.805			
00:00:11	1.380	76.805			
00:00:11	0.670	76.805			
00:00:11	-0.034	76.805			
00:00:11	-0.232	76.805			
00:00:11	-0.587	76.805			
00:00:11	-0.847	76.805			
00:00:11	-0.985	76.805			
00:00:11	-1.377	76.805			
00:00:11	-1.137	76.805			
00:00:11	-0.938	76.805			
00:00:11	-0.933	76.805			
00:00:11	-0.609	76.805			
00:00:11	-0.499	76.805			
00:00:11	-0.313	76.805			
00:00:11	-0.187	76.805			
00:00:11	-0.225	76.805			
00:00:11	-0.018	76.805			
00:00:11	-0.317	76.805			
00:00:11	-0.398	76.805			
00:00:11	-0.434	76.805			
00:00:11	-0.763	76.805			
00:00:11	-0.700	76.805			
00:00:11	-0.989	76.805			
00:00:11	-1.219	76.805			
00:00:11	-1.229	76.805			
00:00:11	-1.445	76.805			
00:00:11	-1.543	76.805			
00:00:11	-1.863	76.805			
00:00:11	-2.245	76.805			
00:00:11	-2.217	76.805			
00:00:11	-2.569	76.805			
00:00:11	-2.519	76.805			
00:00:11	-2.650	76.805			
00:00:11	-3.067	76.805			
00:00:11	-3.008	76.805			
00:00:11	-3.144	76.805			
00:00:11	-3.116	76.805			
00:00:11	-3.136	76.805			
00:00:11	-3.299	76.805			
00:00:11	-3.164	76.805			
00:00:11	-3.300	76.805			
00:00:11	-3.228	76.805			
00:00:11	-2.981	76.805			
00:00:11	-2.997	76.805			
00:00:11	-2.742	76.805			
00:00:11	-2.748	76.805			
00:00:11	-2.661	76.805			
00:00:11	-2.434	76.805			
00:00:11	-2.451	76.805			
00:00:11	-1.979	76.805			
00:00:11	-1.790	76.805			
00:00:11	-1.767	76.805			
00:00:11	-1.462	76.805			
00:00:11	-1.613	76.805			
00:00:11	-1.649	76.805			
00:00:11	-1.783	76.805			
00:00:11	-1.932	76.805			
00:00:11	-1.744	76.805			
00:00:11	-1.787	76.805			
00:00:11	-1.733	76.805			
00:00:11	-1.675	76.805			
00:00:11	-1.897	76.805			
00:00:11	-1.708	76.805			
00:00:11	-1.881	76.805			
00:00:11	-2.096	76.805			
00:00:11	-2.014	76.805			
00:00:11	-2.081	76.805			
00:00:11	-1.540	76.805			
00:00:11	-1.028	76.805			
00:00:11	-0.313	76.805			
00:00:11	0.901	76.805			
00:00:11	2.175	76.805			
00:00:11	3.987	76.805			
00:00:11	5.967	76.805			
00:00:11	7.864	76.805			
00:00:11	9.704	76.805			
00:00:11	11.174	76.805			
00:00:11	12.856	76.805			
00:00:11	14.118	76.805			
00:00:11	14.839	76.805			
00:00:11	15.645	76.805			
00:00:11	15.843	76.805			
00:00:12	16.151	76.805			
00:00:12	16.344	76.805			
00:00:12	15.940	76.805			
00:00:12	15.645	76.805			
00:00:12	14.956	76.805			
00:00:12	14.075	76.805			
00:00:12	13.292	76.805			
00:00:12	12.135	76.805			
00:00:12	11.340	76.040			
00:00:12	10.504	76.040			
00:00:12	9.653	76.040			
00:00:12	8.991	76.040			
00:00:12	7.954	76.045			
00:00:12	7.213	76.045			
00:00:12	6.213	76.045			
00:00:12	5.185	76.045			
00:00:12	4.474	76.045			
00:00:12	3.315	76.045			
00:00:12	2.336	76.045			
00:00:12	1.520	76.045			
00:00:12	0.682	76.045			
00:00:12	0.066	76.045			
00:00:12	-0.672	76.045			
00:00:12	-0.990	76.045			
00:00:12	-1.090	76.045			
00:00:12	-1.230	76.045			
00:00:12	-1.078	76.045			
00:00:12	-1.149	76.045			
00:00:12	-0.965	76.045			
00:00:12	-0.533	76.045			
00:00:12	-0.507	76.045			
00:00:12	-0.263	76.045			
00:00:12	-0.258	76.045			
00:00:12	-0.297	76.045			
00:00:12	-0.023	76.045			
00:00:12	-0.275	76.045			
00:00:12	-0.115	76.045			
00:00:12	-0.096	76.045			
00:00:12	-0.336	76.045			
00:00:12	-0.393	76.045			
00:00:12	-0.677	76.045			
00:00:12	-0.855	76.045			
00:00:12	-0.910	76.045			
00:00:12	-1.174	76.045			
00:00:12	-1.055	76.045			
00:00:12	-1.224	76.045			
00:00:12	-1.434	76.045			
00:00:12	-1.478	76.045			
00:00:12	-1.915	76.045			
00:00:12	-1.928	76.045			
00:00:12	-2.165	76.045			
00:00:12	-2.348	76.045			
00:00:12	-2.336	76.045			
00:00:12	-2.506	76.045			
00:00:12	-2.405	76.045			
00:00:12	-2.609	76.045			
00:00:12	-2.905	76.045			
00:00:12	-2.856	76.045			
00:00:12	-3.015	76.045			
00:00:12	-2.963	76.045			
00:00:12	-2.858	76.045			
00:00:12	-2.829	76.045			
00:00:12	-2.539	76.045			
00:00:12	-2.506	76.045			
00:00:12	-2.377	76.045			
00:00:12	-2.164	76.045			
00:00:12	-2.071	76.045			
00:00:12	-1.710	76.045			
00:00:12	-1.701	76.045			
00:00:12	-1.637	76.045			
00:00:12	-1.305	76.045			
00:00:12	-1.407	76.045			
00:00:12	-1.176	76.045			
00:00:12	-1.164	76.045			
00:00:12	-1.151	76.045			
00:00:12	-0.881	76.045			
00:00:12	-1.056	76.045			
00:00:12	-1.116	76.045			
00:00:12	-1.384	76.045			
00:00:12	-1.714	76.045			
00:00:12	-1.513	76.045			
00:00:12	-1.632	76.045			
00:00:12	-1.553	76.045			
00:00:12	-1.472	76.045			
00:00:12	-1.717	76.045			
00:00:12	-1.564	76.045			
00:00:12	-1.759	76.045			
00:00:12	-1.681	76.045			
00:00:12	-1.114	76.045			
00:00:12	-0.528	76.045			
00:00:12	0.832	76.045			
00:00:12	2.204	76.045			
00:00:12	3.789	76.045			
00:00:12	5.773	76.045			
00:00:12	7.379	76.045			
00:00:12	9.442	76.045			
00:00:12	11.154	76.045			
00:00:12	12.420	76.045			
00:00:12	13.827	76.045			
00:00:12	14.625	76.045			
00:00:12	15.297	76.045			
00:00:12	15.661	76.045			
00:00:12	15.526	76.045			
00:00:12	15.573	76.045			
00:00:12	15.163	76.045			
00:00:12	14.661	76.045			
00:00:12	14.018	76.045			
00:00:12	13.079	76.045			
00:00:12	12.393	76.045			
00:00:12	11.434	76.045			
00:00:12	10.551	76.045			
00:00:12	9.777	76.045			
00:00:12	8.689	75.294			
00:00:12	8.082	75.294			
00:00:12	7.255	75.294			
00:00:12	6.353	75.294			
00:00:12	5.552	75.299			
00:00:12	4.472	75.299			
00:00:12	3.664	75.299			
00:00:12	2.571	75.299			
00:00:12	1.551	75.299			
00:00:12	0.954	75.299			
00:00:12	0.160	75.299			
00:00:12	-0.237	75.299			
00:00:12	-0.641	75.299			
00:00:12	-1.029	75.299			
00:00:12	-0.909	75.299			
00:00:12	-1.003	75.299			
00:00:13	-0.850	75.299			
00:00:13	-0.785	75.299			
00:00:13	-0.846	75.299			
00:00:13	-0.531	75.299			
00:00:13	-0.416	75.299			
00:00:13	-0.278	75.299			
00:00:13	-0.091	75.299			
00:00:13	-0.196	75.299			
00:00:13	0.057	75.299			
00:00:13	-0.027	75.299			
00:00:13	-0.349	75.299			
00:00:13	-0.350	75.299			
00:00:13	-0.557	75.299			
00:00:13	-0.503	75.299			
00:00:13	-0.606	75.299			
00:00:13	-0.897	75.299			
00:00:13	-0.796	75.299			
00:00:13	-1.110	75.299			
00:00:13	-1.286	75.299			
00:00:13	-1.588	75.299			
00:00:13	-1.945	75.299			
00:00:13	-2.068	75.299			
00:00:13	-2.518	75.299			
00:00:13	-2.666	75.299			
00:00:13	-2.560	75.299			
00:00:13	-2.831	75.299			
00:00:13	-2.785	75.299			
00:00:13	-2.830	75.299			
00:00:13	-2.799	75.299			
00:00:13	-2.534	75.299			
00:00:13	-2.667	75.299			
00:00:13	-2.503	75.299			
00:00:13	-2.521	75.299			
00:00:13	-2.678	75.299			
00:00:13	-2.613	75.299			
00:00:13	-2.764	75.299			
00:00:13	-2.637	75.299			
00:00:13	-2.591	75.299			
00:00:13	-2.565	75.299			
00:00:13	-2.280	75.299			
00:00:13	-2.302	75.299			
00:00:13	-2.102	75.299			
00:00:13	-1.737	75.299			
00:00:13	-1.692	75.299			
00:00:13	-1.447	75.299			
00:00:13	-1.373	75.299			
00:00:13	-1.282	75.299			
00:00:13	-1.076	75.299			
00:00:13	-1.141	75.299			
00:00:13	-0.926	75.299			
00:00:13	-1.128	75.299			
00:00:13	-1.325	75.299			
00:00:13	-1.282	75.299			
00:00:13	-1.582	75.299			
00:00:13	-1.453	75.299			
00:00:13	-1.399	75.299			
00:00:13	-1.727	75.299			
00:00:13	-1.758	75.299			
00:00:13	-2.164	75.299			
00:00:13	-2.086	75.299			
00:00:13	-1.983	75.299			
00:00:13	-1.995	75.299			
00:00:13	-1.307	75.299			
00:00:13	-0.659	75.299			
00:00:13	0.400	75.299			
00:00:13	1.731	75.299			
00:00:13	3.139	75.299			
00:00:13	5.188	75.299			
00:00:13	7.187	75.299			
00:00:13	9.223	75.299			
00:00:13	11.208	75.299			
00:00:13	12.467	75.299			
00:00:13	13.943	75.299			
00:00:13	15.129	75.299			
00:00:13	15.910	75.299			
00:00:13	16.695	75.299			
00:00:13	16.723	75.299			
00:00:13	16.808	75.299			
00:00:13	16.592	75.299			
00:00:13	16.025	75.299			
00:00:13	15.459	75.299			
00:00:13	14.476	75.299			
00:00:13	13.710	75.299			
00:00:13	13.104	75.299			
00:00:13	12.230	75.299			
00:00:13	11.581	75.299			
00:00:13	10.657	75.299			
00:00:13	9.893	75.299			
00:00:13	9.201	74.563			
00:00:13	8.178	74.563			
00:00:13	7.537	74.563			
00:00:13	6.601	74.563			
00:00:13	5.554	74.568			
00:00:13	4.833	74.568			
00:00:13	3.631	74.568			
00:00:13	2.770	74.568			
00:00:13	1.942	74.568			
00:00:13	1.057	74.568			
00:00:13	0.520	74.568			
00:00:13	-0.398	74.568			
00:00:13	-0.743	74.568			
00:00:13	-0.944	74.568			
00:00:13	-1.317	74.568			
00:00:13	-1.197	74.568			
00:00:13	-1.227	74.568			
00:00:13	-0.932	74.568			
00:00:13	-0.562	74.568			
00:00:13	-0.587	74.568			
00:00:13	-0.244	74.568			
00:00:13	-0.236	74.568			
00:00:13	-0.186	74.568			
00:00:13	-0.067	74.568			
00:00:13	-0.175	74.568			
00:00:13	0.087	74.568			
00:00:13	-0.010	74.568			
00:00:13	-0.298	74.568			
00:00:13	-0.353	74.568			
00:00:13	-0.690	74.568			
00:00:13	-0.806	74.568			
00:00:13	-1.104	74.568			
00:00:13	-1.452	74.568			
00:00:13	-1.569	74.568			
00:00:13	-1.907	74.568			
00:00:13	-1.902	74.568			
00:00:13	-1.823	74.568			
00:00:13	-2.022	74.568			
00:00:13	-1.941	74.568			
00:00:13	-2.258	74.568			
00:00:14	-2.308	74.568			
00:00:14	-2.228	74.568			
00:00:14	-2.487	74.568			
00:00:14	-2.413	74.568			
00:00:14	-2.622	74.568			
00:00:14	-2.825	74.568			
00:00:14	-2.722	74.568			
00:00:14	-2.896	74.568			
00:00:14	-2.722	74.568			
00:00:14	-2.698	74.568			
00:00:14	-2.734	74.568			
00:00:14	-2.568	74.568			
00:00:14	-2.795	74.568			
00:00:14	-2.702	74.568			
00:00:14	-2.505	74.568			
00:00:14	-2.497	74.568			
00:00:14	-2.187	74.568			
00:00:14	-2.099	74.568			
00:00:14	-1.891	74.568			
00:00:14	-1.659	74.568			
00:00:14	-1.688	74.568			
00:00:14	-1.416	74.568			
00:00:14	-1.404	74.568			
00:00:14	-1.211	74.568			
00:00:14	-1.096	74.568			
00:00:14	-1.377	74.568			
00:00:14	-1.143	74.568			
00:00:14	-1.204	74.568			
00:00:14	-1.217	74.568			
00:00:14	-1.205	74.568			
00:00:14	-1.349	74.568			
00:00:14	-1.272	74.568			
00:00:14	-1.427	74.568			
00:00:14	-1.677	74.568			
00:00:14	-1.661	74.568			
00:00:14	-1.868	74.568			
00:00:14	-1.857	74.568			
00:00:14	-1.821	74.568			
00:00:14	-1.708	74.568			
00:00:14	-1.104	74.568			
00:00:14	-0.554	74.568			
00:00:14	0.419	74.568			
00:00:14	1.738	74.568			
00:00:14	3.081	74.568			
00:00:14	5.048	74.568			
00:00:14	6.789	74.568			
00:00:14	8.560	74.568			
00:00:14	10.563	74.568			
00:00:14	12.248	74.568			
00:00:14	13.838	74.568			
00:00:14	14.854	74.568			
00:00:14	15.521	74.568			
00:00:14	16.314	74.568			
00:00:14	16.508	74.568			
00:00:14	16.737	74.568			
00:00:14	16.612	74.568			
00:00:14	16.032	74.568			
00:00:14	15.646	74.568			
00:00:14	14.698	74.568			
00:00:14	14.004	74.568			
00:00:14	13.314	74.568			
00:00:14	12.307	74.568			
00:00:14	11.642	74.568			
00:00:14	10.693	74.568			
00:00:14	9.794	73.143			
00:00:14	9.108	73.143			
00:00:14	8.194	73.143			
00:00:14	7.587	73.143			
00:00:14	6.661	73.148			
00:00:14	5.741	73.148			
00:00:14	4.834	73.148			
00:00:14	3.642	73.148			
00:00:14	2.850	73.148			
00:00:14	1.928	73.148			
00:00:14	0.991	73.148			
00:00:14	0.394	73.148			
00:00:14	-0.310	73.148			
00:00:14	-0.584	73.148			
00:00:14	-0.725	73.148			
00:00:14	-0.937	73.148			
00:00:14	-0.975	73.148			
00:00:14	-1.205	73.148			
00:00:14	-1.149	73.148			
00:00:14	-1.045	73.148			
00:00:14	-1.088	73.148			
00:00:14	-0.675	73.148			
00:00:14	-0.486	73.148			
00:00:14	-0.428	73.148			
00:00:14	-0.284	73.148			
00:00:14	-0.376	73.148			
00:00:14	-0.188	73.148			
00:00:14	-0.348	73.148			
00:00:14	-0.495	73.148			
00:00:14	-0.485	73.148			
00:00:14	-0.868	73.148			
00:00:14	-1.008	73.148			
00:00:14	-1.216	73.148			
00:00:14	-1.339	73.148			
00:00:14	-1.405	73.148			
00:00:14	-1.870	73.148			
00:00:14	-2.112	73.148			
00:00:14	-2.355	73.148			
00:00:14	-2.666	73.148			
00:00:14	-2.672	73.148			
00:00:14	-2.976	73.148			
00:00:14	-3.059	73.148			
00:00:14	-3.147	73.148			
00:00:14	-3.460	73.148			
00:00:14	-3.320	73.148			
00:00:14	-3.409	73.148			
00:00:14	-3.332	73.148			
00:00:14	-3.090	73.148			
00:00:14	-3.223	73.148			
00:00:14	-3.085	73.148			
00:00:14	-2.918	73.148			
00:00:14	-2.928	73.148			
00:00:14	-2.654	73.148			
00:00:14	-2.859	73.148			
00:00:14	-2.799	73.148			
00:00:14	-2.594	73.148			
00:00:14	-2.502	73.148			
00:00:14	-2.091	73.148			
00:00:14	-2.139	73.148			
00:00:14	-1.970	73.148			
00:00:14	-1.759	73.148			
00:00:14	-1.756	73.148			
00:00:14	-1.547	73.148			
00:00:14	-1.715	73.148			
00:00:15	-1.715	73.148			
00:00:15	-1.464	73.148			
00:00:15	-1.575	73.148			
00:00:15	-1.419	73.148			
00:00:15	-1.540	73.148			
00:00:15	-1.605	73.148			
00:00:15	-1.445	73.148			
00:00:15	-1.596	73.148			
00:00:15	-1.637	73.148			
00:00:15	-1.920	73.148			
00:00:15	-2.153	73.148			
00:00:15	-2.012	73.148			
00:00:15	-2.180	73.148			
00:00:15	-2.160	73.148			
00:00:15	-2.209	73.148			
00:00:15	-2.522	73.148			
00:00:15	-2.244	73.148			
00:00:15	-2.099	73.148			
00:00:15	-1.631	73.148			
00:00:15	-0.911	73.148			
00:00:15	-0.133	73.148			
00:00:15	1.459	73.148			
00:00:15	3.015	73.148			
00:00:15	4.799	73.148			
00:00:15	6.822	73.148			
00:00:15	8.626	73.148			
00:00:15	10.776	73.148			
00:00:15	12.585	73.148			
00:00:15	13.978	73.148			
00:00:15	15.267	73.148			
00:00:15	15.967	73.148			
00:00:15	16.627	73.148			
00:00:15	16.805	73.148			
00:00:15	16.618	73.148			
00:00:15	16.658	73.148			
00:00:15	16.105	73.148			
00:00:15	15.559	73.148			
00:00:15	14.876	73.148			
00:00:15	13.896	73.148			
00:00:15	13.027	73.148			
00:00:15	11.994	73.148			
00:00:15	11.188	73.148			
00:00:15	10.432	73.148			
00:00:15	9.546	73.148			
00:00:15	8.823	71.776			
00:00:15	7.772	71.776			
00:00:15	6.791	71.776			
00:00:15	6.049	71.776			
00:00:15	5.057	71.781			
00:00:15	4.230	71.781			
00:00:15	3.229	71.781			
00:00:15	2.291	71.781			
00:00:15	1.671	71.781			
00:00:15	0.701	71.781			
00:00:15	-0.088	71.781			
00:00:15	-0.780	71.781			
00:00:15	-1.332	71.781			
00:00:15	-1.455	71.781			
00:00:15	-1.688	71.781			
00:00:15	-1.616	71.781			
00:00:15	-1.470	71.781			
00:00:15	-1.451	71.781			
00:00:15	-0.964	71.781			
00:00:15	-0.828	71.781			
00:00:15	-0.619	71.781			
00:00:15	-0.361	71.781			
00:00:15	-0.500	71.781			
00:00:15	-0.266	71.781			
00:00:15	-0.270	71.781			
00:00:15	-0.286	71.781			
00:00:15	-0.239	71.781			
00:00:15	-0.474	71.781			
00:00:15	-0.461	71.781			
00:00:15	-0.599	71.781			
00:00:15	-0.904	71.781			
00:00:15	-1.007	71.781			
00:00:15	-1.430	71.781			
00:00:15	-1.542	71.781			
00:00:15	-1.655	71.781			
00:00:15	-1.985	71.781			
00:00:15	-2.054	71.781			
00:00:15	-2.348	71.781			
00:00:15	-2.467	71.781			
00:00:15	-2.562	71.781			
00:00:15	-2.879	71.781			
00:00:15	-2.784	71.781			
00:00:15	-2.891	71.781			
00:00:15	-2.918	71.781			
00:00:15	-2.759	71.781			
00:00:15	-2.996	71.781			
00:00:15	-2.865	71.781			
00:00:15	-2.934	71.781			
00:00:15	-2.882	71.781			
00:00:15	-2.593	71.781			
00:00:15	-2.726	71.781			
00:00:15	-2.423	71.781			
00:00:15	-2.348	71.781			
00:00:15	-2.415	71.781			
00:00:15	-2.195	71.781			
00:00:15	-2.278	71.781			
00:00:15	-2.120	71.781			
00:00:15	-1.918	71.781			
00:00:15	-1.975	71.781			
00:00:15	-1.647	71.781			
00:00:15	-1.647	71.781			
00:00:15	-1.618	71.781			
00:00:15	-1.445	71.781			
00:00:15	-1.476	71.781			
00:00:15	-1.355	71.781			
00:00:15	-1.451	71.781			
00:00:15	-1.491	71.781			
00:00:15	-1.313	71.781			
00:00:15	-1.453	71.781			
00:00:15	-1.234	71.781			
00:00:15	-1.127	71.781			
00:00:15	-1.127	71.781			
00:00:15	-0.998	71.781			
00:00:15	-1.206	71.781			
00:00:15	-1.208	71.781			
00:00:15	-1.159	71.781			
00:00:15	-1.342	71.781			
00:00:15	-1.325	71.781			
00:00:15	-1.452	71.781			
00:00:15	-1.125	71.781			
00:00:15	-0.523	71.781			
00:00:15	0.183	71.781			
00:00:15	1.443	71.781			
00:00:15	2.758	71.781			
00:00:16	4.471	76.805			
00:00:16	6.505	76.805			
00:00:16	8.318	76.805			
00:00:16	10.312	76.805			
00:00:16	11.755	76.805			
00:00:16	13.005	76.805			
00:00:16	14.275	76.805			
00:00:16	14.906	76.805			
00:00:16	15.658	76.805			
00:00:16	16.063	76.805			
00:00:16	16.163	76.805			
00:00:16	16.013	76.805			
00:00:16	15.228	76.805			
00:00:16	14.732	76.805			
00:00:16	14.197	76.805			
00:00:16	13.308	76.805			
00:00:16	12.543	76.805			
00:00:16	11.419	76.805			
00:00:16	10.436	76.805			
00:00:16	9.549	76.805			
00:00:16	8.408	76.805			
00:00:16	7.687	76.805			
00:00:16	6.822	76.805			
00:00:16	6.060	76.805			
00:00:16	5.312	76.805			
00:00:16	4.260	76.805			
00:00:16	3.463	76.805			
00:00:16	2.487	76.805			
00:00:16	1.544	76.805			
00:00:16	1.011	76.805			
00:00:16	0.234	76.805			
00:00:16	-0.342	76.805			
00:00:16	-0.747	76.805			
00:00:16	-1.147	76.805			
00:00:16	-1.124	76.805			
00:00:16	-1.149	76.805			
00:00:16	-1.047	76.805			
00:00:16	-0.922	76.805			
00:00:16	-0.854	76.805			
00:00:16	-0.429	76.805			
00:00:16	-0.359	76.805			
00:00:16	-0.187	76.805			
00:00:16	-0.064	76.805			
00:00:16	-0.273	76.805			
00:00:16	-0.015	76.805			
00:00:16	-0.074	76.805			
00:00:16	-0.132	76.805			
00:00:16	0.010	76.805			
00:00:16	-0.244	76.805			
00:00:16	-0.257	76.805			
00:00:16	-0.355	76.805			
00:00:16	-0.583	76.805			
00:00:16	-0.796	76.805			
00:00:16	-1.238	76.805			
00:00:16	-1.458	76.805			
00:00:16	-1.770	76.805			
00:00:16	-2.093	76.805			
00:00:16	-2.108	76.805			
00:00:16	-2.375	76.805			
00:00:16	-2.418	76.805			
00:00:16	-2.471	76.805			
00:00:16	-2.788	76.805			
00:00:16	-2.816	76.805			
00:00:16	-3.007	76.805			
00:00:16	-3.086	76.805			
00:00:16	-2.904	76.805			
00:00:16	-3.006	76.805			
00:00:16	-2.871	76.805			
00:00:16	-3.083	76.805			
00:00:16	-3.146	76.805			
00:00:16	-2.852	76.805			
00:00:16	-2.955	76.805			
00:00:16	-2.888	76.805			
00:00:16	-2.859	76.805			
00:00:16	-2.780	76.805			
00:00:16	-2.459	76.805			
00:00:16	-2.449	76.805			
00:00:16	-2.170	76.805			
00:00:16	-2.118	76.805			
00:00:16	-2.144	76.805			
00:00:16	-1.903	76.805			
00:00:16	-1.902	76.805			
00:00:16	-1.789	76.805			
00:00:16	-1.670	76.805			
00:00:16	-1.774	76.805			
00:00:16	-1.432	76.805			
00:00:16	-1.466	76.805			
00:00:16	-1.414	76.805			
00:00:16	-1.182	76.805			
00:00:16	-1.386	76.805			
00:00:16	-1.341	76.805			
00:00:16	-1.525	76.805			
00:00:16	-1.793	76.805			
00:00:16	-1.814	76.805			
00:00:16	-2.146	76.805			
00:00:16	-2.175	76.805			
00:00:16	-2.244	76.805			
00:00:16	-2.302	76.805			
00:00:16	-1.982	76.805			
00:00:16	-2.029	76.805			
00:00:16	-1.690	76.805			
00:00:16	-0.949	76.805			
00:00:16	-0.343	76.805			
00:00:16	1.016	76.805			
00:00:16	2.510	76.805			
00:00:16	4.587	76.805			
00:00:16	6.666	76.805			
00:00:16	8.478	76.805			
00:00:16	10.520	76.805			
00:00:16	12.186	76.805			
00:00:16	13.656	76.805			
00:00:16	15.061	76.805			
00:00:16	15.899	76.805			
00:00:16	16.735	76.805			
00:00:16	17.181	76.805			
00:00:16	17.072	76.805			
00:00:16	17.051	76.805			
00:00:16	16.520	76.805			
00:00:16	16.044	76.805			
00:00:16	15.373	76.805			
00:00:16	14.472	76.805			
00:00:16	13.848	76.805			
00:00:16	12.904	76.805			
00:00:16	12.066	76.805			
00:00:16	11.179	57.313			
00:00:16	10.122	57.313			
00:00:16	9.381	57.313			
00:00:16	8.336	57.313			
00:00:17	7.385	57.318			
00:00:17	6.549	57.318			
00:00:17	5.364	57.318			
00:00:17	4.622	57.318			
00:00:17	3.614	57.318			
00:00:17	2.664	57.318			
00:00:17	1.990	57.318			
00:00:17	1.033	57.318			
00:00:17	0.300	57.318			
00:00:17	-0.391	57.318			
00:00:17	-0.986	57.318			
00:00:17	-1.240	57.318			
00:00:17	-1.598	57.318			
00:00:17	-1.550	57.318			
00:00:17	-1.476	57.318			
00:00:17	-1.528	57.318			
00:00:17	-1.171	57.318			
00:00:17	-1.128	57.318			
00:00:17	-0.932	57.318			
00:00:17	-0.581	57.318			
00:00:17	-0.568	57.318			
00:00:17	-0.187	57.318			
00:00:17	-0.055	57.318			
00:00:17	0.037	57.318			
00:00:17	-0.031	57.318			
00:00:17	-0.393	57.318			
00:00:17	-0.355	57.318			
00:00:17	-0.448	57.318			
00:00:17	-0.536	57.318			
00:00:17	-0.402	57.318			
00:00:17	-0.772	57.318			
00:00:17	-1.058	57.318			
00:00:17	-1.396	57.318			
00:00:17	-1.701	57.318			
00:00:17	-1.632	57.318			
00:00:17	-1.944	57.318			
00:00:17	-2.136	57.318			
00:00:17	-2.240	57.318			
00:00:17	-2.542	57.318			
00:00:17	-2.420	57.318			
00:00:17	-2.639	57.318			
00:00:17	-2.729	57.318			
00:00:17	-2.800	57.318			
00:00:17	-3.174	57.318			
00:00:17	-3.214	57.318			
00:00:17	-3.293	57.318			
00:00:17	-3.289	57.318			
00:00:17	-3.130	57.318			
00:00:17	-3.322	57.318			
00:00:17	-3.201	57.318			
00:00:17	-3.124	57.318			
00:00:17	-3.101	57.318			
00:00:17	-2.933	57.318			
00:00:17	-3.077	57.318			
00:00:17	-3.095	57.318			
00:00:17	-3.225	57.318			
00:00:17	-3.330	57.318			
00:00:17	-3.014	57.318			
00:00:17	-3.106	57.318			
00:00:17	-3.004	57.318			
00:00:17	-2.774	57.318			
00:00:17	-2.816	57.318			
00:00:17	-2.501	57.318			
00:00:17	-2.406	57.318			
00:00:17	-2.338	57.318			
00:00:17	-2.272	57.318			
00:00:17	-2.513	57.318			
00:00:17	-2.427	57.318			
00:00:17	-2.502	57.318			
00:00:17	-2.635	57.318			
00:00:17	-2.712	57.318			
00:00:17	-3.047	57.318			
00:00:17	-3.094	57.318			
00:00:17	-3.254	57.318			
00:00:17	-3.398	57.318			
00:00:17	-3.255	57.318			
00:00:17	-3.444	57.318			
00:00:17	-3.406	57.318			
00:00:17	-3.333	57.318			
00:00:17	-3.454	57.318			
00:00:17	-2.997	57.318			
00:00:17	-2.407	57.318			
00:00:17	-1.377	57.318			
00:00:17	-0.050	57.318			
00:00:17	1.391	57.318			
00:00:17	3.464	57.318			
00:00:17	5.692	57.318			
00:00:17	7.936	57.318			
00:00:17	10.263	57.318			
00:00:17	12.106	57.318			
00:00:17	14.014	57.318			
00:00:17	15.459	57.318			
00:00:17	16.616	57.318			
00:00:17	17.774	57.318			
00:00:17	18.232	57.318			
00:00:17	18.411	57.318			
00:00:17	18.169	57.318			
00:00:17	17.673	57.318			
00:00:17	17.292	57.318			
00:00:17	16.356	57.318			
00:00:17	15.628	57.318			
00:00:17	15.105	57.318			
00:00:17	14.115	57.318			
00:00:17	13.328	57.318			
00:00:17	12.305	71.111			
00:00:17	11.215	71.111			
00:00:17	10.244	71.111			
00:00:17	8.975	71.111			
00:00:17	8.041	71.116			
00:00:17	6.935	71.116			
00:00:17	5.859	71.116			
00:00:17	4.860	71.116			
00:00:17	3.659	71.116			
00:00:17	2.912	71.116			
00:00:17	2.070	71.116			
00:00:17	1.189	71.116			
00:00:17	0.631	71.116			
00:00:17	-0.115	71.116			
00:00:17	-0.550	71.116			
00:00:17	-0.791	71.116			
00:00:17	-1.063	71.116			
00:00:17	-0.834	71.116			
00:00:17	-0.815	71.116			
00:00:17	-0.497	71.116			
00:00:17	-0.185	71.116			
00:00:17	-0.261	71.116			
00:00:17	0.001	71.116			
00:00:17	0.005	71.116			
00:00:18	0.054	71.116			
00:00:18	0.226	71.116			
00:00:18	0.024	71.116			
00:00:18	0.209	71.116			
00:00:18	0.314	71.116			
00:00:18	0.216	71.116			
00:00:18	0.270	71.116			
00:00:18	-0.042	71.116			
00:00:18	-0.149	71.116			
00:00:18	-0.286	71.116			
00:00:18	-0.729	71.116			
00:00:18	-0.810	71.116			
00:00:18	-1.188	71.116			
00:00:18	-1.309	71.116			
00:00:18	-1.305	71.116			
00:00:18	-1.591	71.116			
00:00:18	-1.619	71.116			
00:00:18	-2.155	71.116			
00:00:18	-2.453	71.116			
00:00:18	-2.477	71.116			
00:00:18	-2.883	71.116			
00:00:18	-2.854	71.116			
00:00:18	-2.846	71.116			
00:00:18	-2.892	71.116			
00:00:18	-2.809	71.116			
00:00:18	-3.035	71.116			
00:00:18	-2.882	71.116			
00:00:18	-2.922	71.116			
00:00:18	-3.026	71.116			
00:00:18	-2.792	71.116			
00:00:18	-2.800	71.116			
00:00:18	-2.527	71.116			
00:00:18	-2.283	71.116			
00:00:18	-2.319	71.116			
00:00:18	-2.065	71.116			
00:00:18	-1.947	71.116			
00:00:18	-1.748	71.116			
00:00:18	-1.624	71.116			
00:00:18	-1.837	71.116			
00:00:18	-1.681	71.116			
00:00:18	-1.630	71.116			
00:00:18	-1.467	71.116			
00:00:18	-1.213	71.116			
00:00:18	-1.276	71.116			
00:00:18	-1.168	71.116			
00:00:18	-1.253	71.116			
00:00:18	-1.206	71.116			
00:00:18	-0.955	71.116			
00:00:18	-1.201	71.116			
00:00:18	-1.255	71.116			
00:00:18	-1.335	71.116			
00:00:18	-1.543	71.116			
00:00:18	-1.467	71.116			
00:00:18	-1.915	71.116			
00:00:18	-2.054	71.116			
00:00:18	-2.075	71.116			
00:00:18	-2.062	71.116			
00:00:18	-1.599	71.116			
00:00:18	-1.338	71.116			
00:00:18	-0.662	71.116			
00:00:18	0.536	71.116			
00:00:18	1.788	71.116			
00:00:18	3.629	71.116			
00:00:18	5.345	71.116			
00:00:18	7.214	71.116			
00:00:18	9.119	71.116			
00:00:18	10.799	71.116			
00:00:18	12.640	71.116			
00:00:18	14.072	71.116			
00:00:18	15.205	71.116			
00:00:18	16.352	71.116			
00:00:18	16.891	71.116			
00:00:18	17.250	71.116			
00:00:18	17.214	71.116			
00:00:18	16.799	71.116			
00:00:18	16.593	71.116			
00:00:18	15.985	71.116			
00:00:18	15.345	71.116			
00:00:18	14.553	71.116			
00:00:18	13.382	71.116			
00:00:18	12.425	71.116			
00:00:18	11.319	71.116			
00:00:18	10.392	71.116			
00:00:18	9.714	71.116			
00:00:18	8.866	72.453			
00:00:18	8.239	72.453			
00:00:18	7.360	72.453			
00:00:18	6.464	72.453			
00:00:18	5.614	72.458			
00:00:18	4.327	72.458			
00:00:18	3.301	72.458			
00:00:18	2.130	72.458			
00:00:18	0.957	72.458			
00:00:18	0.210	72.458			
00:00:18	-0.553	72.458			
00:00:18	-0.878	72.458			
00:00:18	-1.154	72.458			
00:00:18	-1.522	72.458			
00:00:18	-1.535	72.458			
00:00:18	-1.667	72.458			
00:00:18	-1.318	72.458			
00:00:18	-0.968	72.458			
00:00:18	-1.099	72.458			
00:00:18	-0.879	72.458			
00:00:18	-0.846	72.458			
00:00:18	-0.529	72.458			
00:00:18	-0.144	72.458			
00:00:18	-0.188	72.458			
00:00:18	0.115	72.458			
00:00:18	0.153	72.458			
00:00:18	0.057	72.458			
00:00:18	0.176	72.458			
00:00:18	-0.174	72.458			
00:00:18	-0.400	72.458			
00:00:18	-0.750	72.458			
00:00:18	-1.031	72.458			
00:00:18	-0.946	72.458			
00:00:18	-1.341	72.458			
00:00:18	-1.571	72.458			
00:00:18	-1.598	72.458			
00:00:18	-1.753	72.458			
00:00:18	-1.592	72.458			
00:00:18	-1.801	72.458			
00:00:18	-1.979	72.458			
00:00:18	-2.093	72.458			
00:00:18	-2.336	72.458			
00:00:18	-2.224	72.458			
00:00:18	-2.463	72.458			
00:00:19	-2.710	72.458			
00:00:19	-2.714	72.458			
00:00:19	-2.897	72.458			
00:00:19	-2.850	72.458			
00:00:19	-2.912	72.458			
00:00:19	-2.937	72.458			
00:00:19	-2.753	72.458			
00:00:19	-2.782	72.458			
00:00:19	-2.436	72.458			
00:00:19	-2.316	72.458			
00:00:19	-2.336	72.458			
00:00:19	-2.098	72.458			
00:00:19	-2.179	72.458			
00:00:19	-2.034	72.458			
00:00:19	-1.842	72.458			
00:00:19	-1.992	72.458			
00:00:19	-1.747	72.458			
00:00:19	-1.843	72.458			
00:00:19	-1.851	72.458			
00:00:19	-1.775	72.458			
00:00:19	-1.800	72.458			
00:00:19	-1.482	72.458			
00:00:19	-1.480	72.458			
00:00:19	-1.498	72.458			
00:00:19	-1.364	72.458			
00:00:19	-1.620	72.458			
00:00:19	-1.651	72.458			
00:00:19	-1.753	72.458			
00:00:19	-1.964	72.458			
00:00:19	-1.843	72.458			
00:00:19	-1.918	72.458			
00:00:19	-1.963	72.458			
00:00:19	-1.947	72.458			
00:00:19	-1.997	72.458			
00:00:19	-1.776	72.458			
00:00:19	-1.817	72.458			
00:00:19	-1.323	72.458			
00:00:19	-0.653	72.458			
00:00:19	0.229	72.458			
00:00:19	1.753	72.458			
00:00:19	3.289	72.458			
00:00:19	5.296	72.458			
00:00:19	7.457	72.458			
00:00:19	9.200	72.458			
00:00:19	11.154	72.458			
00:00:19	12.784	72.458			
00:00:19	14.252	72.458			
00:00:19	15.584	72.458			
00:00:19	16.290	72.458			
00:00:19	17.111	72.458			
00:00:19	17.494	72.458			
00:00:19	17.331	72.458			
00:00:19	17.116	72.458			
00:00:19	16.454	72.458			
00:00:19	15.944	72.458			
00:00:19	15.176	72.458			
00:00:19	14.175	72.458			
00:00:19	13.599	72.458			
00:00:19	12.702	72.458			
00:00:19	11.984	72.458			
00:00:19	11.286	72.453			
00:00:19	10.286	72.453			
00:00:19	9.643	72.453			
00:00:19	8.673	72.453			
00:00:19	7.720	72.458			
00:00:19	6.883	72.458			
00:00:19	5.816	72.458			
00:00:19	4.992	72.458			
00:00:19	3.871	72.458			
00:00:19	2.777	72.458			
00:00:19	1.973	72.458			
00:00:19	0.935	72.458			
00:00:19	0.279	72.458			
00:00:19	-0.261	72.458			
00:00:19	-0.847	72.458			
00:00:19	-0.832	72.458			
00:00:19	-1.134	72.458			
00:00:19	-1.239	72.458			
00:00:19	-1.070	72.458			
00:00:19	-1.084	72.458			
00:00:19	-0.723	72.458			
00:00:19	-0.541	72.458			
00:00:19	-0.345	72.458			
00:00:19	-0.164	72.458			
00:00:19	-0.196	72.458			
00:00:19	-0.064	72.458			
00:00:19	-0.184	72.458			
00:00:19	-0.303	72.458			
00:00:19	-0.090	72.458			
00:00:19	-0.170	72.458			
00:00:19	0.045	72.458			
00:00:19	-0.096	72.458			
00:00:19	-0.520	72.458			
00:00:19	-0.685	72.458			
00:00:19	-0.948	72.458			
00:00:19	-1.037	72.458			
00:00:19	-1.160	72.458			
00:00:19	-1.503	72.458			
00:00:19	-1.619	72.458			
00:00:19	-1.882	72.458			
00:00:19	-1.900	72.458			
00:00:19	-1.847	72.458			
00:00:19	-2.204	72.458			
00:00:19	-2.207	72.458			
00:00:19	-2.479	72.458			
00:00:19	-2.515	72.458			
00:00:19	-2.344	72.458			
00:00:19	-2.652	72.458			
00:00:19	-2.649	72.458			
00:00:19	-2.726	72.458			
00:00:19	-2.809	72.458			
00:00:19	-2.642	72.458			
00:00:19	-2.688	72.458			
00:00:19	-2.546	72.458			
00:00:19	-2.614	72.458			
00:00:19	-2.726	72.458			
00:00:19	-2.439	72.458			
00:00:19	-2.312	72.458			
00:00:19	-1.997	72.458			
00:00:19	-1.722	72.458			
00:00:19	-1.777	72.458			
00:00:19	-1.482	72.458			
00:00:19	-1.584	72.458			
00:00:19	-1.489	72.458			
00:00:19	-1.403	72.458			
00:00:19	-1.601	72.458			
00:00:19	-1.284	72.458			
00:00:19	-1.239	72.458			
00:00:20	-1.235	72.458			
00:00:20	-1.084	72.458			
00:00:20	-1.310	72.458			
00:00:20	-1.234	72.458			
00:00:20	-1.296	72.458			
00:00:20	-1.528	72.458			
00:00:20	-1.519	72.458			
00:00:20	-1.817	72.458			
00:00:20	-1.806	72.458			
00:00:20	-1.812	72.458			
00:00:20	-1.796	72.458			
00:00:20	-1.470	72.458			
00:00:20	-1.577	72.458			
00:00:20	-1.541	72.458			
00:00:20	-1.311	72.458			
00:00:20	-1.098	72.458			
00:00:20	-0.404	72.458			
00:00:20	0.379	72.458			
00:00:20	1.714	72.458			
00:00:20	3.402	72.458			
00:00:20	5.047	72.458			
00:00:20	7.327	72.458			
00:00:20	9.339	72.458			
00:00:20	11.157	72.458			
00:00:20	13.122	72.458			
00:00:20	14.566	72.458			
00:00:20	15.884	72.458			
00:00:20	16.681	72.458			
00:00:20	17.066	72.458			
00:00:20	17.296	72.458			
00:00:20	17.030	72.458			
00:00:20	16.874	72.458			
00:00:20	16.557	72.458			
00:00:20	15.707	72.458			
00:00:20	15.120	72.458			
00:00:20	14.169	72.458			
00:00:20	13.236	72.458			
00:00:20	12.329	72.458			
00:00:20	11.088	72.458			
00:00:20	10.208	72.458			
00:00:20	9.131	72.453			
00:00:20	8.362	72.453			
00:00:20	7.745	72.453			
00:00:20	6.719	72.453			
00:00:20	5.883	72.458			
00:00:20	4.772	72.458			
00:00:20	3.672	72.458			
00:00:20	2.849	72.458			
00:00:20	1.842	72.458			
00:00:20	1.163	72.458			
00:00:20	0.372	72.458			
00:00:20	-0.315	72.458			
00:00:20	-0.597	72.458			
00:00:20	-0.987	72.458			
00:00:20	-0.987	72.458			
00:00:20	-0.927	72.458			
00:00:20	-1.039	72.458			
00:00:20	-0.744	72.458			
00:00:20	-0.591	72.458			
00:00:20	-0.258	72.458			
00:00:20	0.166	72.458			
00:00:20	0.237	72.458			
00:00:20	0.473	72.458			
00:00:20	0.360	72.458			
00:00:20	0.262	72.458			
00:00:20	0.476	72.458			
00:00:20	0.339	72.458			
00:00:20	0.533	72.458			
00:00:20	0.563	72.458			
00:00:20	0.377	72.458			
00:00:20	0.369	72.458			
00:00:20	-0.072	72.458			
00:00:20	-0.239	72.458			
00:00:20	-0.514	72.458			
00:00:20	-1.021	72.458			
00:00:20	-1.036	72.458			
00:00:20	-1.289	72.458			
00:00:20	-1.331	72.458			
00:00:20	-1.494	72.458			
00:00:20	-1.831	72.458			
00:00:20	-1.798	72.458			
00:00:20	-1.983	72.458			
00:00:20	-2.093	72.458			
00:00:20	-2.029	72.458			
00:00:20	-2.243	72.458			
00:00:20	-2.182	72.458			
00:00:20	-2.289	72.458			
00:00:20	-2.391	72.458			
00:00:20	-2.257	72.458			
00:00:20	-2.507	72.458			
00:00:20	-2.369	72.458			
00:00:20	-2.411	72.458			
00:00:20	-2.473	72.458			
00:00:20	-2.315	72.458			
00:00:20	-2.450	72.458			
00:00:20	-2.377	72.458			
00:00:20	-2.203	72.458			
00:00:20	-2.056	72.458			
00:00:20	-1.646	72.458			
00:00:20	-1.550	72.458			
00:00:20	-1.495	72.458			
00:00:20	-1.354	72.458			
00:00:20	-1.446	72.458			
00:00:20	-1.204	72.458			
00:00:20	-1.117	72.458			
00:00:20	-1.053	72.458			
00:00:20	-0.861	72.458			
00:00:20	-1.122	72.458			
00:00:20	-1.004	72.458			
00:00:20	-1.040	72.458			
00:00:20	-1.127	72.458			
00:00:20	-0.992	72.458			
00:00:20	-1.273	72.458			
00:00:20	-1.212	72.458			
00:00:20	-1.257	72.458			
00:00:20	-1.607	72.458			
00:00:20	-1.564	72.458			
00:00:20	-1.675	72.458			
00:00:20	-1.571	72.458			
00:00:20	-1.262	72.458			
00:00:20	-0.987	72.458			
00:00:20	-0.321	72.458			
00:00:20	0.218	72.458			
00:00:20	1.222	72.458			
00:00:20	2.636	72.458			
00:00:20	4.156	72.458			
00:00:20	6.141	72.458			
00:00:20	7.942	72.458			
00:00:21	9.611	72.458			
00:00:21	11.586	72.458			
00:00:21	12.999	72.458			
00:00:21	14.291	72.458			
00:00:21	15.269	72.458			
00:00:21	15.871	72.458			
00:00:21	16.327	72.458			
00:00:21	16.201	72.458			
00:00:21	16.079	72.458			
00:00:21	15.707	72.458			
00:00:21	15.032	72.458			
00:00:21	14.456	72.458			
00:00:21	13.530	72.458			
00:00:21	12.907	72.458			
00:00:21	12.257	72.458			
00:00:21	11.199	72.458			
00:00:21	10.459	72.453			
00:00:21	9.390	72.453			
00:00:21	8.293	72.453			
00:00:21	7.505	72.453			
00:00:21	6.407	72.458			
00:00:21	5.641	72.458			
00:00:21	4.721	72.458			
00:00:21	3.719	72.458			
00:00:21	2.747	72.458			
00:00:21	1.532	72.458			
00:00:21	0.927	72.458			
00:00:21	0.146	72.458			
00:00:21	-0.549	72.458			
00:00:21	-0.693	72.458			
00:00:21	-1.033	72.458			
00:00:21	-0.969	72.458			
00:00:21	-0.867	72.458			
00:00:21	-0.960	72.458			
00:00:21	-0.681	72.458			
00:00:21	-0.621	72.458			
00:00:21	-0.214	72.458			
00:00:21	0.223	72.458			
00:00:21	0.270	72.458			
00:00:21	0.478	72.458			
00:00:21	0.553	72.458			
00:00:21	0.507	72.458			
00:00:21	0.673	72.458			
00:00:21	0.520	72.458			
00:00:21	0.638	72.458			
00:00:21	0.570	72.458			
00:00:21	0.300	72.458			
00:00:21	0.234	72.458			
00:00:21	-0.222	72.458			
00:00:21	-0.377	72.458			
00:00:21	-0.588	72.458			
00:00:21	-0.776	72.458			
00:00:21	-0.794	72.458			
00:00:21	-1.136	72.458			
00:00:21	-1.274	72.458			
00:00:21	-1.395	72.458			
00:00:21	-1.869	72.458			
00:00:21	-1.893	72.458			
00:00:21	-2.200	72.458			
00:00:21	-2.341	72.458			
00:00:21	-2.335	72.458			
00:00:21	-2.553	72.458			
00:00:21	-2.458	72.458			
00:00:21	-2.524	72.458			
00:00:21	-2.567	72.458			
00:00:21	-2.523	72.458			
00:00:21	-2.751	72.458			
00:00:21	-2.534	72.458			
00:00:21	-2.383	72.458			
00:00:21	-2.386	72.458			
00:00:21	-2.196	72.458			
00:00:21	-2.192	72.458			
00:00:21	-2.030	72.458			
00:00:21	-1.790	72.458			
00:00:21	-1.662	72.458			
00:00:21	-1.282	72.458			
00:00:21	-1.411	72.458			
00:00:21	-1.395	72.458			
00:00:21	-1.341	72.458			
00:00:21	-1.422	72.458			
00:00:21	-1.188	72.458			
00:00:21	-1.226	72.458			
00:00:21	-1.085	72.458			
00:00:21	-0.931	72.458			
00:00:21	-1.132	72.458			
00:00:21	-1.096	72.458			
00:00:21	-1.148	72.458			
00:00:21	-1.190	72.458			
00:00:21	-1.070	72.458			
00:00:21	-1.348	72.458			
00:00:21	-1.256	72.458			
00:00:21	-1.291	72.458			
00:00:21	-1.535	72.458			
00:00:21	-1.392	72.458			
00:00:21	-1.537	72.458			
00:00:21	-1.411	72.458			
00:00:21	-1.089	72.458			
00:00:21	-0.881	72.458			
00:00:21	-0.078	72.458			
00:00:21	0.926	72.458			
00:00:21	2.373	72.458			
00:00:21	4.202	72.458			
00:00:21	5.943	72.458			
00:00:21	7.998	72.458			
00:00:21	9.748	72.458			
00:00:21	11.445	72.458			
00:00:21	13.143	72.458			
00:00:21	14.344	72.458			
00:00:21	15.476	72.458			
00:00:21	16.059	72.458			
00:00:21	16.393	72.458			
00:00:21	16.756	72.458			
00:00:21	16.512	72.458			
00:00:21	16.194	72.458			
00:00:21	15.643	72.458			
00:00:21	14.813	72.458			
00:00:21	14.143	72.458			
00:00:21	13.103	72.458			
00:00:21	12.303	72.458			
00:00:21	11.642	72.458			
00:00:21	10.652	73.846			
00:00:21	10.050	73.846			
00:00:21	9.053	73.846			
00:00:21	8.118	73.846			
00:00:21	7.274	73.851			
00:00:21	6.319	73.851			
00:00:21	5.724	73.851			
00:00:21	4.803	73.851			
00:00:22	3.858	73.851			
00:00:22	3.029	73.851			
00:00:22	1.975	73.851			
00:00:22	1.493	73.851			
00:00:22	0.901	73.851			
00:00:22	0.136	73.851			
00:00:22	-0.322	73.851			
00:00:22	-0.980	73.851			
00:00:22	-1.167	73.851			
00:00:22	-1.213	73.851			
00:00:22	-1.278	73.851			
00:00:22	-0.987	73.851			
00:00:22	-1.045	73.851			
00:00:22	-0.692	73.851			
00:00:22	-0.324	73.851			
00:00:22	-0.218	73.851			
00:00:22	0.206	73.851			
00:00:22	0.394	73.851			
00:00:22	0.533	73.851			
00:00:22	0.684	73.851			
00:00:22	0.510	73.851			
00:00:22	0.547	73.851			
00:00:22	0.354	73.851			
00:00:22	0.178	73.851			
00:00:22	0.239	73.851			
00:00:22	-0.079	73.851			
00:00:22	-0.176	73.851			
00:00:22	-0.466	73.851			
00:00:22	-0.842	73.851			
00:00:22	-0.775	73.851			
00:00:22	-1.172	73.851			
00:00:22	-1.285	73.851			
00:00:22	-1.367	73.851			
00:00:22	-1.632	73.851			
00:00:22	-1.552	73.851			
00:00:22	-1.686	73.851			
00:00:22	-1.788	73.851			
00:00:22	-1.846	73.851			
00:00:22	-2.218	73.851			
00:00:22	-2.136	73.851			
00:00:22	-2.394	73.851			
00:00:22	-2.586	73.851			
00:00:22	-2.579	73.851			
00:00:22	-2.808	73.851			
00:00:22	-2.622	73.851			
00:00:22	-2.518	73.851			
00:00:22	-2.518	73.851			
00:00:22	-2.428	73.851			
00:00:22	-2.472	73.851			
00:00:22	-2.082	73.851			
00:00:22	-1.806	73.851			
00:00:22	-1.873	73.851			
00:00:22	-1.557	73.851			
00:00:22	-1.626	73.851			
00:00:22	-1.417	73.851			
00:00:22	-1.051	73.851			
00:00:22	-1.004	73.851			
00:00:22	-0.656	73.851			
00:00:22	-0.678	73.851			
00:00:22	-0.708	73.851			
00:00:22	-0.559	73.851			
00:00:22	-0.852	73.851			
00:00:22	-0.738	73.851			
00:00:22	-0.802	73.851			
00:00:22	-0.812	73.851			
00:00:22	-0.722	73.851			
00:00:22	-0.973	73.851			
00:00:22	-0.901	73.851			
00:00:22	-0.966	73.851			
00:00:22	-1.188	73.851			
00:00:22	-1.186	73.851			
00:00:22	-1.420	73.851			
00:00:22	-1.403	73.851			
00:00:22	-1.211	73.851			
00:00:22	-1.269	73.851			
00:00:22	-0.805	73.851			
00:00:22	-0.341	73.851			
00:00:22	0.491	73.851			
00:00:22	1.749	73.851			
00:00:22	3.085	73.851			
00:00:22	4.877	73.851			
00:00:22	6.643	73.851			
00:00:22	8.500	73.851			
00:00:22	10.681	73.851			
00:00:22	12.258	73.851			
00:00:22	13.829	73.851			
00:00:22	14.900	73.851			
00:00:22	15.638	73.851			
00:00:22	16.372	73.851			
00:00:22	16.585	73.851			
00:00:22	16.959	73.851			
00:00:22	16.960	73.851			
00:00:22	16.527	73.851			
00:00:22	15.994	73.851			
00:00:22	14.946	73.851			
00:00:22	14.072	73.851			
00:00:22	13.153	73.851			
00:00:22	12.018	73.851			
00:00:22	11.337	73.851			
00:00:22	10.381	73.851			
00:00:22	9.506	71.776			
00:00:22	8.803	71.776			
00:00:22	7.857	71.776			
00:00:22	7.235	71.776			
00:00:22	6.317	71.781			
00:00:22	5.382	71.781			
00:00:22	4.646	71.781			
00:00:22	3.531	71.781			
00:00:22	2.775	71.781			
00:00:22	1.951	71.781			
00:00:22	1.050	71.781			
00:00:22	0.520	71.781			
00:00:22	-0.231	71.781			
00:00:22	-0.593	71.781			
00:00:22	-0.683	71.781			
00:00:22	-0.930	71.781			
00:00:22	-0.699	71.781			
00:00:22	-0.675	71.781			
00:00:22	-0.471	71.781			
00:00:22	-0.260	71.781			
00:00:22	-0.192	71.781			
00:00:22	0.183	71.781			
00:00:22	0.188	71.781			
00:00:22	0.120	71.781			
00:00:22	0.324	71.781			
00:00:22	0.412	71.781			
00:00:22	0.736	71.781			
00:00:22	0.684	71.781			
00:00:23	0.494	71.781			
00:00:23	0.441	71.781			
00:00:23	0.053	71.781			
00:00:23	-0.058	71.781			
00:00:23	-0.182	71.781			
00:00:23	-0.640	71.781			
00:00:23	-0.695	71.781			
00:00:23	-0.975	71.781			
00:00:23	-0.924	71.781			
00:00:23	-0.892	71.781			
00:00:23	-1.162	71.781			
00:00:23	-1.229	71.781			
00:00:23	-1.523	71.781			
00:00:23	-1.647	71.781			
00:00:23	-1.653	71.781			
00:00:23	-1.995	71.781			
00:00:23	-1.905	71.781			
00:00:23	-2.117	71.781			
00:00:23	-2.274	71.781			
00:00:23	-2.127	71.781			
00:00:23	-2.387	71.781			
00:00:23	-2.164	71.781			
00:00:23	-2.189	71.781			
00:00:23	-2.296	71.781			
00:00:23	-2.212	71.781			
00:00:23	-2.512	71.781			
00:00:23	-2.325	71.781			
00:00:23	-2.010	71.781			
00:00:23	-1.976	71.781			
00:00:23	-1.561	71.781			
00:00:23	-1.665	71.781			
00:00:23	-1.425	71.781			
00:00:23	-1.247	71.781			
00:00:23	-1.352	71.781			
00:00:23	-1.143	71.781			
00:00:23	-1.194	71.781			
00:00:23	-1.187	71.781			
00:00:23	-1.040	71.781			
00:00:23	-1.205	71.781			
00:00:23	-0.975	71.781			
00:00:23	-0.964	71.781			
00:00:23	-1.098	71.781			
00:00:23	-1.062	71.781			
00:00:23	-1.141	71.781			
00:00:23	-1.071	71.781			
00:00:23	-1.064	71.781			
00:00:23	-1.236	71.781			
00:00:23	-1.186	71.781			
00:00:23	-1.441	71.781			
00:00:23	-1.498	71.781			
00:00:23	-1.431	71.781			
00:00:23	-1.499	71.781			
00:00:23	-1.322	71.781			
00:00:23	-1.397	71.781			
00:00:23	-1.254	71.781			
00:00:23	-0.793	71.781			
00:00:23	-0.238	71.781			
00:00:23	1.082	71.781			
00:00:23	2.469	71.781			
00:00:23	3.958	71.781			
00:00:23	5.894	71.781			
00:00:23	7.666	71.781			
00:00:23	9.717	71.781			
00:00:23	11.410	71.781			
00:00:23	12.839	71.781			
00:00:23	14.316	71.781			
00:00:23	15.236	71.781			
00:00:23	15.992	71.781			
00:00:23	16.351	71.781			
00:00:23	16.264	71.781			
00:00:23	16.231	71.781			
00:00:23	15.809	71.781			
00:00:23	15.266	71.781			
00:00:23	14.421	71.781			
00:00:23	13.448	71.781			
00:00:23	12.875	71.781			
00:00:23	11.971	71.781			
00:00:23	11.272	71.781			
00:00:23	10.574	71.781			
00:00:23	9.382	71.781			
00:00:23	8.647	71.776			
00:00:23	7.724	71.776			
00:00:23	6.823	71.776			
00:00:23	6.022	71.776			
00:00:23	4.973	71.781			
00:00:23	4.212	71.781			
00:00:23	3.435	71.781			
00:00:23	2.620	71.781			
00:00:23	1.986	71.781			
00:00:23	1.090	71.781			
00:00:23	0.629	71.781			
00:00:23	0.127	71.781			
00:00:23	-0.517	71.781			
00:00:23	-0.785	71.781			
00:00:23	-0.991	71.781			
00:00:23	-0.975	71.781			
00:00:23	-0.777	71.781			
00:00:23	-0.787	71.781			
00:00:23	-0.515	71.781			
00:00:23	-0.563	71.781			
00:00:23	-0.299	71.781			
00:00:23	0.112	71.781			
00:00:23	0.224	71.781			
00:00:23	0.601	71.781			
00:00:23	0.655	71.781			
00:00:23	0.597	71.781			
00:00:23	0.781	71.781			
00:00:23	0.518	71.781			
00:00:23	0.557	71.781			
00:00:23	0.444	71.781			
00:00:23	0.194	71.781			
00:00:23	0.306	71.781			
00:00:23	0.028	71.781			
00:00:23	-0.119	71.781			
00:00:23	-0.330	71.781			
00:00:23	-0.661	71.781			
00:00:23	-0.781	71.781			
00:00:23	-1.108	71.781			
00:00:23	-1.286	71.781			
00:00:23	-1.418	71.781			
00:00:23	-1.746	71.781			
00:00:23	-1.694	71.781			
00:00:23	-1.870	71.781			
00:00:23	-1.911	71.781			
00:00:23	-1.737	71.781			
00:00:23	-1.920	71.781			
00:00:23	-1.741	71.781			
00:00:23	-1.784	71.781			
00:00:24	-1.906	71.781			
00:00:24	-1.740	71.781			
00:00:24	-2.046	71.781			
00:00:24	-1.904	71.781			
00:00:24	-1.743	71.781			
00:00:24	-1.734	71.781			
00:00:24	-1.365	71.781			
00:00:24	-1.330	71.781			
00:00:24	-1.240	71.781			
00:00:24	-1.124	71.781			
00:00:24	-1.211	71.781			
00:00:24	-0.915	71.781			
00:00:24	-1.028	71.781			
00:00:24	-0.862	71.781			
00:00:24	-0.657	71.781			
00:00:24	-0.705	71.781			
00:00:24	-0.542	71.781			
00:00:24	-0.650	71.781			
00:00:24	-0.744	71.781			
00:00:24	-0.480	71.781			
00:00:24	-0.561	71.781			
00:00:24	-0.328	71.781			
00:00:24	-0.476	71.781			
00:00:24	-0.768	71.781			
00:00:24	-0.817	71.781			
00:00:24	-1.179	71.781			
00:00:24	-1.136	71.781			
00:00:24	-1.058	71.781			
00:00:24	-1.121	71.781			
00:00:24	-0.962	71.781			
00:00:24	-1.176	71.781			
00:00:24	-1.030	71.781			
00:00:24	-0.503	71.781			
00:00:24	0.147	71.781			
00:00:24	1.323	71.781			
00:00:24	2.389	71.781			
00:00:24	3.709	71.781			
00:00:24	5.538	71.781			
00:00:24	7.279	71.781			
00:00:24	9.279	71.781			
00:00:24	10.906	71.781			
00:00:24	12.187	71.781			
00:00:24	13.504	71.781			
00:00:24	14.228	71.781			
00:00:24	14.868	71.781			
00:00:24	15.145	71.781			
00:00:24	15.177	71.781			
00:00:24	15.262	71.781			
00:00:24	14.772	71.781			
00:00:24	14.439	71.781			
00:00:24	13.817	71.781			
00:00:24	12.829	71.781			
00:00:24	12.120	71.781			
00:00:24	11.219	71.781			
00:00:24	10.344	71.781			
00:00:24	9.500	71.781			
00:00:24	8.422	73.143			
00:00:24	7.617	73.143			
00:00:24	6.591	73.143			
00:00:24	5.762	73.143			
00:00:24	5.090	73.148			
00:00:24	4.009	73.148			
00:00:24	3.229	73.148			
00:00:24	2.164	73.148			
00:00:24	1.116	73.148			
00:00:24	0.580	73.148			
00:00:24	-0.127	73.148			
00:00:24	-0.359	73.148			
00:00:24	-0.583	73.148			
00:00:24	-0.797	73.148			
00:00:24	-0.619	73.148			
00:00:24	-0.688	73.148			
00:00:24	-0.567	73.148			
00:00:24	-0.443	73.148			
00:00:24	-0.555	73.148			
00:00:24	-0.082	73.148			
00:00:24	0.075	73.148			
00:00:24	0.271	73.148			
00:00:24	0.511	73.148			
00:00:24	0.272	73.148			
00:00:24	0.384	73.148			
00:00:24	0.410	73.148			
00:00:24	0.461	73.148			
00:00:24	0.595	73.148			
00:00:24	0.406	73.148			
00:00:24	0.467	73.148			
00:00:24	0.287	73.148			
00:00:24	-0.085	73.148			
00:00:24	-0.158	73.148			
00:00:24	-0.474	73.148			
00:00:24	-0.566	73.148			
00:00:24	-0.775	73.148			
00:00:24	-1.092	73.148			
00:00:24	-1.045	73.148			
00:00:24	-1.468	73.148			
00:00:24	-1.596	73.148			
00:00:24	-1.532	73.148			
00:00:24	-1.807	73.148			
00:00:24	-1.800	73.148			
00:00:24	-1.972	73.148			
00:00:24	-2.022	73.148			
00:00:24	-1.949	73.148			
00:00:24	-2.134	73.148			
00:00:24	-2.064	73.148			
00:00:24	-2.074	73.148			
00:00:24	-2.111	73.148			
00:00:24	-1.819	73.148			
00:00:24	-1.934	73.148			
00:00:24	-1.798	73.148			
00:00:24	-1.759	73.148			
00:00:24	-1.839	73.148			
00:00:24	-1.612	73.148			
00:00:24	-1.656	73.148			
00:00:24	-1.541	73.148			
00:00:24	-1.470	73.148			
00:00:24	-1.487	73.148			
00:00:24	-1.081	73.148			
00:00:24	-0.911	73.148			
00:00:24	-0.814	73.148			
00:00:24	-0.680	73.148			
00:00:24	-0.860	73.148			
00:00:24	-0.750	73.148			
00:00:24	-0.715	73.148			
00:00:24	-0.484	73.148			
00:00:24	-0.335	73.148			
00:00:24	-0.592	73.148			
00:00:24	-0.644	73.148			
00:00:24	-0.799	73.148			
00:00:25	-0.986	73.148			
00:00:25	-0.981	73.148			
00:00:25	-1.306	73.148			
00:00:25	-1.356	73.148			
00:00:25	-1.304	73.148			
00:00:25	-1.531	73.148			
00:00:25	-1.342	73.148			
00:00:25	-1.387	73.148			
00:00:25	-1.044	73.148			
00:00:25	-0.414	73.148			
00:00:25	0.266	73.148			
00:00:25	1.640	73.148			
00:00:25	2.967	73.148			
00:00:25	4.489	73.148			
00:00:25	6.382	73.148			
00:00:25	8.010	73.148			
00:00:25	9.920	73.148			
00:00:25	11.473	73.148			
00:00:25	12.814	73.148			
00:00:25	14.192	73.148			
00:00:25	14.879	73.148			
00:00:25	15.657	73.148			
00:00:25	16.075	73.148			
00:00:25	16.151	73.148			
00:00:25	16.373	73.148			
00:00:25	15.913	73.148			
00:00:25	15.453	73.148			
00:00:25	14.859	73.148			
00:00:25	14.027	73.148			
00:00:25	13.455	73.148			
00:00:25	12.537	73.148			
00:00:25	11.801	73.148			
00:00:25	10.942	73.143			
00:00:25	9.814	73.143			
00:00:25	9.181	73.143			
00:00:25	8.278	73.143			
00:00:25	7.439	73.148			
00:00:25	6.746	73.148			
00:00:25	5.766	73.148			
00:00:25	5.052	73.148			
00:00:25	3.942	73.148			
00:00:25	2.833	73.148			
00:00:25	2.105	73.148			
00:00:25	1.070	73.148			
00:00:25	0.455	73.148			
00:00:25	0.043	73.148			
00:00:25	-0.287	73.148			
00:00:25	-0.360	73.148			
00:00:25	-0.652	73.148			
00:00:25	-0.664	73.148			
00:00:25	-0.485	73.148			
00:00:25	-0.536	73.148			
00:00:25	-0.265	73.148			
00:00:25	-0.368	73.148			
00:00:25	-0.250	73.148			
00:00:25	0.005	73.148			
00:00:25	-0.061	73.148			
00:00:25	0.262	73.148			
00:00:25	0.322	73.148			
00:00:25	0.352	73.148			
00:00:25	0.535	73.148			
00:00:25	0.307	73.148			
00:00:25	0.522	73.148			
00:00:25	0.501	73.148			
00:00:25	0.350	73.148			
00:00:25	0.482	73.148			
00:00:25	0.068	73.148			
00:00:25	-0.130	73.148			
00:00:25	-0.350	73.148			
00:00:25	-0.838	73.148			
00:00:25	-0.874	73.148			
00:00:25	-1.057	73.148			
00:00:25	-1.125	73.148			
00:00:25	-1.174	73.148			
00:00:25	-1.409	73.148			
00:00:25	-1.382	73.148			
00:00:25	-1.656	73.148			
00:00:25	-1.901	73.148			
00:00:25	-2.002	73.148			
00:00:25	-2.139	73.148			
00:00:25	-1.776	73.148			
00:00:25	-1.648	73.148			
00:00:25	-1.742	73.148			
00:00:25	-1.576	73.148			
00:00:25	-1.864	73.148			
00:00:25	-1.859	73.148			
00:00:25	-1.883	73.148			
00:00:25	-1.917	73.148			
00:00:25	-1.609	73.148			
00:00:25	-1.703	73.148			
00:00:25	-1.535	73.148			
00:00:25	-1.391	73.148			
00:00:25	-1.412	73.148			
00:00:25	-1.176	73.148			
00:00:25	-1.305	73.148			
00:00:25	-1.038	73.148			
00:00:25	-0.638	73.148			
00:00:25	-0.551	73.148			
00:00:25	-0.294	73.148			
00:00:25	-0.378	73.148			
00:00:25	-0.408	73.148			
00:00:25	-0.389	73.148			
00:00:25	-0.498	73.148			
00:00:25	-0.398	73.148			
00:00:25	-0.479	73.148			
00:00:25	-0.678	73.148			
00:00:25	-0.681	73.148			
00:00:25	-0.937	73.148			
00:00:25	-0.896	73.148			
00:00:25	-1.140	73.148			
00:00:25	-1.402	73.148			
00:00:25	-1.281	73.148			
00:00:25	-1.360	73.148			
00:00:25	-1.207	73.148			
00:00:25	-0.891	73.148			
00:00:25	-0.676	73.148			
00:00:25	0.014	73.148			
00:00:25	0.747	73.148			
00:00:25	1.793	73.148			
00:00:25	3.161	73.148			
00:00:25	4.518	73.148			
00:00:25	6.400	73.148			
00:00:25	8.096	73.148			
00:00:25	9.807	73.148			
00:00:25	11.641	73.148			
00:00:25	12.892	73.148			
00:00:25	14.331	73.148			
00:00:25	15.337	73.148			
00:00:26	15.753	73.148			
00:00:26	16.164	73.148			
00:00:26	16.110	73.148			
00:00:26	16.114	73.148			
00:00:26	15.706	73.148			
00:00:26	14.868	73.148			
00:00:26	14.297	73.148			
00:00:26	13.514	73.148			
00:00:26	12.853	73.148			
00:00:26	12.016	73.148			
00:00:26	11.137	73.148			
00:00:26	10.628	73.148			
00:00:26	9.743	71.776			
00:00:26	8.940	71.776			
00:00:26	8.391	71.776			
00:00:26	7.432	71.776			
00:00:26	6.715	71.781			
00:00:26	5.664	71.781			
00:00:26	4.578	71.781			
00:00:26	3.896	71.781			
00:00:26	3.038	71.781			
00:00:26	2.494	71.781			
00:00:26	1.764	71.781			
00:00:26	0.897	71.781			
00:00:26	0.391	71.781			
00:00:26	-0.358	71.781			
00:00:26	-0.682	71.781			
00:00:26	-0.796	71.781			
00:00:26	-0.991	71.781			
00:00:26	-0.707	71.781			
00:00:26	-0.665	71.781			
00:00:26	-0.576	71.781			
00:00:26	-0.305	71.781			
00:00:26	-0.126	71.781			
00:00:26	0.206	71.781			
00:00:26	0.153	71.781			
00:00:26	0.185	71.781			
00:00:26	0.377	71.781			
00:00:26	0.278	71.781			
00:00:26	0.495	71.781			
00:00:26	0.523	71.781			
00:00:26	0.494	71.781			
00:00:26	0.700	71.781			
00:00:26	0.616	71.781			
00:00:26	0.693	71.781			
00:00:26	0.564	71.781			
00:00:26	0.129	71.781			
00:00:26	-0.083	71.781			
00:00:26	-0.584	71.781			
00:00:26	-0.772	71.781			
00:00:26	-0.930	71.781			
00:00:26	-1.308	71.781			
00:00:26	-1.462	71.781			
00:00:26	-1.825	71.781			
00:00:26	-2.054	71.781			
00:00:26	-1.893	71.781			
00:00:26	-1.994	71.781			
00:00:26	-1.974	71.781			
00:00:26	-2.274	71.781			
00:00:26	-2.367	71.781			
00:00:26	-2.274	71.781			
00:00:26	-2.549	71.781			
00:00:26	-2.235	71.781			
00:00:26	-2.248	71.781			
00:00:26	-2.308	71.781			
00:00:26	-2.105	71.781			
00:00:26	-2.138	71.781			
00:00:26	-1.870	71.781			
00:00:26	-1.825	71.781			
00:00:26	-2.002	71.781			
00:00:26	-1.749	71.781			
00:00:26	-1.713	71.781			
00:00:26	-1.386	71.781			
00:00:26	-1.186	71.781			
00:00:26	-1.329	71.781			
00:00:26	-0.998	71.781			
00:00:26	-1.105	71.781			
00:00:26	-0.970	71.781			
00:00:26	-0.755	71.781			
00:00:26	-0.974	71.781			
00:00:26	-0.978	71.781			
00:00:26	-1.063	71.781			
00:00:26	-1.270	71.781			
00:00:26	-1.238	71.781			
00:00:26	-1.471	71.781			
00:00:26	-1.340	71.781			
00:00:26	-1.361	71.781			
00:00:26	-1.367	71.781			
00:00:26	-1.078	71.781			
00:00:26	-1.216	71.781			
00:00:26	-1.050	71.781			
00:00:26	-1.084	71.781			
00:00:26	-1.459	71.781			
00:00:26	-1.329	71.781			
00:00:26	-1.377	71.781			
00:00:26	-1.133	71.781			
00:00:26	-0.703	71.781			
00:00:26	-0.326	71.781			
00:00:26	0.710	71.781			
00:00:26	1.873	71.781			
00:00:26	3.350	71.781			
00:00:26	5.083	71.781			
00:00:26	6.639	71.781			
00:00:26	8.574	71.781			
00:00:26	10.209	71.781			
00:00:26	11.725	71.781			
00:00:26	13.282	71.781			
00:00:26	14.167	71.781			
00:00:26	15.026	71.781			
00:00:26	15.690	71.781			
00:00:26	16.025	71.781			
00:00:26	16.233	71.781			
00:00:26	15.810	71.781			
00:00:26	15.397	71.781			
00:00:26	14.851	71.781			
00:00:26	14.060	71.781			
00:00:26	13.404	71.781			
00:00:26	12.465	71.781			
00:00:26	11.549	71.781			
00:00:26	10.751	71.781			
00:00:26	9.523	70.459			
00:00:26	8.864	70.459			
00:00:26	7.937	70.459			
00:00:26	7.036	70.459			
00:00:26	6.484	70.464			
00:00:26	5.762	70.464			
00:00:26	5.189	70.464			
00:00:26	4.350	70.464			
00:00:27	3.457	70.464			
00:00:27	2.653	70.464			
00:00:27	1.656	70.464			
00:00:27	0.936	70.464			
00:00:27	0.351	70.464			
00:00:27	-0.301	70.464			
00:00:27	-0.484	70.464			
00:00:27	-0.811	70.464			
00:00:27	-0.676	70.464			
00:00:27	-0.526	70.464			
00:00:27	-0.623	70.464			
00:00:27	-0.416	70.464			
00:00:27	-0.462	70.464			
00:00:27	-0.245	70.464			
00:00:27	0.147	70.464			
00:00:27	0.317	70.464			
00:00:27	0.711	70.464			
00:00:27	0.693	70.464			
00:00:27	0.502	70.464			
00:00:27	0.611	70.464			
00:00:27	0.305	70.464			
00:00:27	0.378	70.464			
00:00:27	0.430	70.464			
00:00:27	0.270	70.464			
00:00:27	0.267	70.464			
00:00:27	0.020	70.464			
00:00:27	-0.257	70.464			
00:00:27	-0.387	70.464			
00:00:27	-0.689	70.464			
00:00:27	-0.684	70.464			
00:00:27	-0.942	70.464			
00:00:27	-1.082	70.464			
00:00:27	-1.195	70.464			
00:00:27	-1.476	70.464			
00:00:27	-1.407	70.464			
00:00:27	-1.658	70.464			
00:00:27	-1.933	70.464			
00:00:27	-2.074	70.464			
00:00:27	-2.457	70.464			
00:00:27	-2.416	70.464			
00:00:27	-2.462	70.464			
00:00:27	-2.409	70.464			
00:00:27	-2.226	70.464			
00:00:27	-2.354	70.464			
00:00:27	-2.247	70.464			
00:00:27	-2.173	70.464			
00:00:27	-2.154	70.464			
00:00:27	-1.939	70.464			
00:00:27	-2.031	70.464			
00:00:27	-1.884	70.464			
00:00:27	-1.560	70.464			
00:00:27	-1.419	70.464			
00:00:27	-1.089	70.464			
00:00:27	-1.244	70.464			
00:00:27	-1.242	70.464			
00:00:27	-1.001	70.464			
00:00:27	-1.001	70.464			
00:00:27	-0.795	70.464			
00:00:27	-0.746	70.464			
00:00:27	-0.625	70.464			
00:00:27	-0.502	70.464			
00:00:27	-0.743	70.464			
00:00:27	-0.600	70.464			
00:00:27	-0.639	70.464			
00:00:27	-0.859	70.464			
00:00:27	-0.794	70.464			
00:00:27	-0.813	70.464			
00:00:27	-0.840	70.464			
00:00:27	-1.116	70.464			
00:00:27	-1.468	70.464			
00:00:27	-1.399	70.464			
00:00:27	-1.590	70.464			
00:00:27	-1.385	70.464			
00:00:27	-1.186	70.464			
00:00:27	-1.379	70.464			
00:00:27	-1.155	70.464			
00:00:27	-0.806	70.464			
00:00:27	-0.358	70.464			
00:00:27	0.669	70.464			
00:00:27	1.775	70.464			
00:00:27	3.313	70.464			
00:00:27	4.893	70.464			
00:00:27	6.614	70.464			
00:00:27	8.544	70.464			
00:00:27	10.037	70.464			
00:00:27	11.654	70.464			
00:00:27	12.942	70.464			
00:00:27	13.832	70.464			
00:00:27	14.844	70.464			
00:00:27	15.055	70.464			
00:00:27	15.185	70.464			
00:00:27	15.179	70.464			
00:00:27	14.669	70.464			
00:00:27	14.375	70.464			
00:00:27	13.712	70.464			
00:00:27	13.055	70.464			
00:00:27	12.324	70.464			
00:00:27	11.371	70.464			
00:00:27	10.618	70.464			
00:00:27	9.578	70.464			
00:00:27	8.873	71.776			
00:00:27	8.283	71.776			
00:00:27	7.231	71.776			
00:00:27	6.567	71.776			
00:00:27	5.856	71.781			
00:00:27	5.000	71.781			
00:00:27	4.231	71.781			
00:00:27	3.257	71.781			
00:00:27	2.568	71.781			
00:00:27	1.797	71.781			
00:00:27	0.918	71.781			
00:00:27	0.512	71.781			
00:00:27	-0.076	71.781			
00:00:27	-0.278	71.781			
00:00:27	-0.394	71.781			
00:00:27	-0.656	71.781			
00:00:27	-0.454	71.781			
00:00:27	-0.464	71.781			
00:00:27	-0.370	71.781			
00:00:27	-0.052	71.781			
00:00:27	-0.078	71.781			
00:00:27	0.206	71.781			
00:00:27	0.300	71.781			
00:00:27	0.458	71.781			
00:00:27	0.535	71.781			
00:00:27	0.302	71.781			
00:00:27	0.312	71.781			
00:00:27	0.118	71.781			
00:00:28	-0.066	71.781			
00:00:28	0.118	71.781			
00:00:28	0.015	71.781			
00:00:28	0.011	71.781			
00:00:28	-0.073	71.781			
00:00:28	-0.394	71.781			
00:00:28	-0.306	71.781			
00:00:28	-0.613	71.781			
00:00:28	-0.876	71.781			
00:00:28	-1.074	71.781			
00:00:28	-1.310	71.781			
00:00:28	-1.199	71.781			
00:00:28	-1.575	71.781			
00:00:28	-1.809	71.781			
00:00:28	-1.908	71.781			
00:00:28	-2.140	71.781			
00:00:28	-2.006	71.781			
00:00:28	-2.048	71.781			
00:00:28	-2.234	71.781			
00:00:28	-2.216	71.781			
00:00:28	-2.471	71.781			
00:00:28	-2.367	71.781			
00:00:28	-2.487	71.781			
00:00:28	-2.634	71.781			
00:00:28	-2.231	71.781			
00:00:28	-2.246	71.781			
00:00:28	-2.081	71.781			
00:00:28	-2.008	71.781			
00:00:28	-2.172	71.781			
00:00:28	-1.901	71.781			
00:00:28	-1.810	71.781			
00:00:28	-1.531	71.781			
00:00:28	-1.157	71.781			
00:00:28	-1.135	71.781			
00:00:28	-0.772	71.781			
00:00:28	-0.825	71.781			
00:00:28	-0.912	71.781			
00:00:28	-0.759	71.781			
00:00:28	-0.940	71.781			
00:00:28	-0.763	71.781			
00:00:28	-0.722	71.781			
00:00:28	-0.735	71.781			
00:00:28	-0.505	71.781			
00:00:28	-0.576	71.781			
00:00:28	-0.487	71.781			
00:00:28	-0.526	71.781			
00:00:28	-0.630	71.781			
00:00:28	-0.601	71.781			
00:00:28	-0.937	71.781			
00:00:28	-1.008	71.781			
00:00:28	-1.173	71.781			
00:00:28	-1.351	71.781			
00:00:28	-1.063	71.781			
00:00:28	-0.844	71.781			
00:00:28	-0.051	71.781			
00:00:28	1.214	71.781			
00:00:28	2.339	71.781			
00:00:28	3.796	71.781			
00:00:28	5.279	71.781			
00:00:28	6.971	71.781			
00:00:28	8.950	71.781			
00:00:28	10.590	71.781			
00:00:28	12.304	71.781			
00:00:28	13.507	71.781			
00:00:28	14.435	71.781			
00:00:28	15.293	71.781			
00:00:28	15.502	71.781			
00:00:28	15.778	71.781			
00:00:28	15.714	71.781			
00:00:28	15.280	71.781			
00:00:28	14.935	71.781			
00:00:28	14.135	71.781			
00:00:28	13.242	71.781			
00:00:28	12.578	71.781			
00:00:28	11.698	71.781			
00:00:28	11.049	71.781			
00:00:28	10.119	73.143			
00:00:28	9.276	73.143			
00:00:28	8.690	73.143			
00:00:28	7.783	73.143			
00:00:28	7.214	73.148			
00:00:28	6.271	73.148			
00:00:28	5.349	73.148			
00:00:28	4.504	73.148			
00:00:28	3.542	73.148			
00:00:28	2.902	73.148			
00:00:28	2.113	73.148			
00:00:28	1.420	73.148			
00:00:28	0.926	73.148			
00:00:28	0.228	73.148			
00:00:28	-0.159	73.148			
00:00:28	-0.517	73.148			
00:00:28	-0.917	73.148			
00:00:28	-0.763	73.148			
00:00:28	-0.915	73.148			
00:00:28	-0.777	73.148			
00:00:28	-0.565	73.148			
00:00:28	-0.475	73.148			
00:00:28	-0.139	73.148			
00:00:28	0.018	73.148			
00:00:28	0.116	73.148			
00:00:28	0.290	73.148			
00:00:28	0.203	73.148			
00:00:28	0.615	73.148			
00:00:28	0.616	73.148			
00:00:28	0.451	73.148			
00:00:28	0.494	73.148			
00:00:28	0.172	73.148			
00:00:28	0.157	73.148			
00:00:28	-0.026	73.148			
00:00:28	-0.372	73.148			
00:00:28	-0.256	73.148			
00:00:28	-0.499	73.148			
00:00:28	-0.650	73.148			
00:00:28	-0.915	73.148			
00:00:28	-1.325	73.148			
00:00:28	-1.262	73.148			
00:00:28	-1.433	73.148			
00:00:28	-1.449	73.148			
00:00:28	-1.460	73.148			
00:00:28	-1.795	73.148			
00:00:28	-1.766	73.148			
00:00:28	-1.920	73.148			
00:00:28	-2.046	73.148			
00:00:28	-1.983	73.148			
00:00:28	-2.112	73.148			
00:00:28	-1.959	73.148			
00:00:28	-2.024	73.148			
00:00:29	-2.153	73.148			
00:00:29	-1.958	73.148			
00:00:29	-2.180	73.148			
00:00:29	-2.088	73.148			
00:00:29	-1.932	73.148			
00:00:29	-1.836	73.148			
00:00:29	-1.436	73.148			
00:00:29	-1.369	73.148			
00:00:29	-1.187	73.148			
00:00:29	-0.985	73.148			
00:00:29	-0.841	73.148			
00:00:29	-0.481	73.148			
00:00:29	-0.497	73.148			
00:00:29	-0.468	73.148			
00:00:29	-0.332	73.148			
00:00:29	-0.517	73.148			
00:00:29	-0.240	73.148			
00:00:29	-0.292	73.148			
00:00:29	-0.489	73.148			
00:00:29	-0.402	73.148			
00:00:29	-0.505	73.148			
00:00:29	-0.408	73.148			
00:00:29	-0.481	73.148			
00:00:29	-0.699	73.148			
00:00:29	-0.703	73.148			
00:00:29	-1.092	73.148			
00:00:29	-1.107	73.148			
00:00:29	-1.023	73.148			
00:00:29	-1.246	73.148			
00:00:29	-1.180	73.148			
00:00:29	-1.156	73.148			
00:00:29	-0.666	73.148			
00:00:29	0.014	73.148			
00:00:29	0.647	73.148			
00:00:29	1.923	73.148			
00:00:29	3.231	73.148			
00:00:29	4.888	73.148			
00:00:29	6.806	73.148			
00:00:29	8.478	73.148			
00:00:29	10.371	73.148			
00:00:29	11.999	73.148			
00:00:29	13.404	73.148			
00:00:29	14.647	73.148			
00:00:29	15.166	73.148			
00:00:29	15.691	73.148			
00:00:29	15.937	73.148			
00:00:29	15.898	73.148			
00:00:29	15.812	73.148			
00:00:29	15.345	73.148			
00:00:29	14.916	73.148			
00:00:29	14.224	73.148			
00:00:29	13.321	73.148			
00:00:29	12.667	73.148			
00:00:29	11.638	73.148			
00:00:29	10.849	73.148			
00:00:29	10.246	73.148			
00:00:29	9.374	71.776			
00:00:29	8.817	71.776			
00:00:29	8.073	71.776			
00:00:29	7.350	71.776			
00:00:29	6.627	71.781			
00:00:29	5.539	71.781			
00:00:29	4.785	71.781			
00:00:29	3.925	71.781			
00:00:29	3.130	71.781			
00:00:29	2.411	71.781			
00:00:29	1.364	71.781			
00:00:29	0.805	71.781			
00:00:29	0.301	71.781			
00:00:29	-0.162	71.781			
00:00:29	-0.216	71.781			
00:00:29	-0.649	71.781			
00:00:29	-0.726	71.781			
00:00:29	-0.565	71.781			
00:00:29	-0.644	71.781			
00:00:29	-0.348	71.781			
00:00:29	-0.348	71.781			
00:00:29	-0.173	71.781			
00:00:29	0.211	71.781			
00:00:29	0.233	71.781			
00:00:29	0.436	71.781			
00:00:29	0.428	71.781			
00:00:29	0.429	71.781			
00:00:29	0.591	71.781			
00:00:29	0.434	71.781			
00:00:29	0.331	71.781			
00:00:29	0.099	71.781			
00:00:29	-0.055	71.781			
00:00:29	-0.109	71.781			
00:00:29	-0.546	71.781			
00:00:29	-0.724	71.781			
00:00:29	-0.973	71.781			
00:00:29	-1.290	71.781			
00:00:29	-1.245	71.781			
00:00:29	-1.476	71.781			
00:00:29	-1.618	71.781			
00:00:29	-1.719	71.781			
00:00:29	-2.020	71.781			
00:00:29	-1.834	71.781			
00:00:29	-1.912	71.781			
00:00:29	-1.958	71.781			
00:00:29	-1.902	71.781			
00:00:29	-2.176	71.781			
00:00:29	-2.060	71.781			
00:00:29	-2.072	71.781			
00:00:29	-2.062	71.781			
00:00:29	-1.808	71.781			
00:00:29	-1.837	71.781			
00:00:29	-1.655	71.781			
00:00:29	-1.644	71.781			
00:00:29	-1.737	71.781			
00:00:29	-1.564	71.781			
00:00:29	-1.637	71.781			
00:00:29	-1.528	71.781			
00:00:29	-1.349	71.781			
00:00:29	-1.370	71.781			
00:00:29	-1.040	71.781			
00:00:29	-1.079	71.781			
00:00:29	-1.032	71.781			
00:00:29	-0.852	71.781			
00:00:29	-0.887	71.781			
00:00:29	-0.599	71.781			
00:00:29	-0.643	71.781			
00:00:29	-0.706	71.781			
00:00:29	-0.659	71.781			
00:00:29	-0.837	71.781			
00:00:29	-0.758	71.781			
00:00:29	-0.835	71.781			
00:00:30	-0.841	71.781			
00:00:30	-0.775	71.781			
00:00:30	-1.103	71.781			
00:00:30	-1.188	71.781			
00:00:30	-1.310	71.781			
00:00:30	-1.480	71.781			
00:00:30	-1.320	71.781			
00:00:30	-1.442	71.781			
00:00:30	-1.336	71.781			
00:00:30	-1.297	71.781			
00:00:30	-1.300	71.781			
00:00:30	-0.948	71.781			
00:00:30	-0.624	71.781			
00:00:30	0.366	71.781			
00:00:30	1.835	71.781			
00:00:30	3.160	71.781			
00:00:30	4.892	71.781			
00:00:30	6.690	71.781			
00:00:30	8.391	71.781			
00:00:30	10.342	71.781			
00:00:30	11.858	71.781			
00:00:30	13.367	71.781			
00:00:30	14.429	71.781			
00:00:30	15.109	71.781			
00:00:30	15.757	71.781			
00:00:30	15.842	71.781			
00:00:30	15.885	71.781			
00:00:30	15.586	71.781			
00:00:30	15.026	71.781			
00:00:30	14.522	71.781			
00:00:30	13.703	71.781			
00:00:30	12.994	71.781			
00:00:30	12.326	71.781			
00:00:30	11.472	71.781			
00:00:30	10.813	71.781			
00:00:30	9.895	71.781			
00:00:30	9.168	71.776			
00:00:30	8.627	71.776			
00:00:30	7.728	71.776			
00:00:30	7.065	71.776			
00:00:30	6.016	71.781			
00:00:30	5.088	71.781			
00:00:30	4.415	71.781			
00:00:30	3.331	71.781			
00:00:30	2.625	71.781			
00:00:30	1.812	71.781			
00:00:30	0.992	71.781			
00:00:30	0.443	71.781			
00:00:30	-0.267	71.781			
00:00:30	-0.632	71.781			
00:00:30	-0.799	71.781			
00:00:30	-0.995	71.781			
00:00:30	-0.764	71.781			
00:00:30	-0.798	71.781			
00:00:30	-0.643	71.781			
00:00:30	-0.234	71.781			
00:00:30	-0.130	71.781			
00:00:30	0.278	71.781			
00:00:30	0.391	71.781			
00:00:30	0.419	71.781			
00:00:30	0.656	71.781			
00:00:30	0.639	71.781			
00:00:30	0.741	71.781			
00:00:30	0.495	71.781			
00:00:30	0.361	71.781			
00:00:30	0.430	71.781			
00:00:30	0.071	71.781			
00:00:30	-0.008	71.781			
00:00:30	-0.141	71.781			
00:00:30	-0.395	71.781			
00:00:30	-0.518	71.781			
00:00:30	-0.921	71.781			
00:00:30	-1.033	71.781			
00:00:30	-1.148	71.781			
00:00:30	-1.347	71.781			
00:00:30	-1.238	71.781			
00:00:30	-1.368	71.781			
00:00:30	-1.452	71.781			
00:00:30	-1.354	71.781			
00:00:30	-1.707	71.781			
00:00:30	-1.707	71.781			
00:00:30	-1.753	71.781			
00:00:30	-1.861	71.781			
00:00:30	-1.859	71.781			
00:00:30	-2.044	71.781			
00:00:30	-1.938	71.781			
00:00:30	-1.946	71.781			
00:00:30	-1.956	71.781			
00:00:30	-1.757	71.781			
00:00:30	-2.014	71.781			
00:00:30	-1.829	71.781			
00:00:30	-1.708	71.781			
00:00:30	-1.717	71.781			
00:00:30	-1.457	71.781			
00:00:30	-1.492	71.781			
00:00:30	-1.475	71.781			
00:00:30	-1.254	71.781			
00:00:30	-1.171	71.781			
00:00:30	-0.941	71.781			
00:00:30	-1.074	71.781			
00:00:30	-1.083	71.781			
00:00:30	-0.974	71.781			
00:00:30	-1.060	71.781			
00:00:30	-0.755	71.781			
00:00:30	-0.875	71.781			
00:00:30	-0.908	71.781			
00:00:30	-0.724	71.781			
00:00:30	-1.078	71.781			
00:00:30	-1.076	71.781			
00:00:30	-1.251	71.781			
00:00:30	-1.371	71.781			
00:00:30	-1.348	71.781			
00:00:30	-1.696	71.781			
00:00:30	-1.593	71.781			
00:00:30	-1.440	71.781			
00:00:30	-1.511	71.781			
00:00:30	-1.185	71.781			
00:00:30	-1.052	71.781			
00:00:30	-0.619	71.781			
00:00:30	0.335	71.781			
00:00:30	1.330	71.781			
00:00:30	2.872	71.781			
00:00:30	4.290	71.781			
00:00:30	5.850	71.781			
00:00:30	7.665	71.781			
00:00:30	9.090	71.781			
00:00:30	10.929	71.781			
00:00:30	12.253	71.781			
00:00:31	13.257	71.781			
00:00:31	14.329	71.781			
00:00:31	14.629	71.781			
00:00:31	15.040	71.781			
00:00:31	14.992	71.781			
00:00:31	14.602	71.781			
00:00:31	14.228	71.781			
00:00:31	13.435	71.781			
00:00:31	12.748	71.781			
00:00:31	12.121	71.781			
00:00:31	11.208	71.781			
00:00:31	10.538	71.781			
00:00:31	9.645	72.453			
00:00:31	8.906	72.453			
00:00:31	8.383	72.453			
00:00:31	7.553	72.453			
00:00:31	6.837	72.458			
00:00:31	5.861	72.458			
00:00:31	4.988	72.458			
00:00:31	4.296	72.458			
00:00:31	3.404	72.458			
00:00:31	2.755	72.458			
00:00:31	1.826	72.458			
00:00:31	0.940	72.458			
00:00:31	0.455	72.458			
00:00:31	-0.103	72.458			
00:00:31	-0.165	72.458			
00:00:31	-0.335	72.458			
00:00:31	-0.674	72.458			
00:00:31	-0.625	72.458			
00:00:31	-0.729	72.458			
00:00:31	-0.560	72.458			
00:00:31	-0.259	72.458			
00:00:31	-0.144	72.458			
00:00:31	0.174	72.458			
00:00:31	0.242	72.458			
00:00:31	0.364	72.458			
00:00:31	0.472	72.458			
00:00:31	0.271	72.458			
00:00:31	0.400	72.458			
00:00:31	0.377	72.458			
00:00:31	0.271	72.458			
00:00:31	0.338	72.458			
00:00:31	0.185	72.458			
00:00:31	0.201	72.458			
00:00:31	0.134	72.458			
00:00:31	-0.111	72.458			
00:00:31	-0.111	72.458			
00:00:31	-0.443	72.458			
00:00:31	-0.659	72.458			
00:00:31	-0.759	72.458			
00:00:31	-1.093	72.458			
00:00:31	-1.109	72.458			
00:00:31	-1.503	72.458			
00:00:31	-1.577	72.458			
00:00:31	-1.593	72.458			
00:00:31	-1.923	72.458			
00:00:31	-1.944	72.458			
00:00:31	-2.101	72.458			
00:00:31	-2.018	72.458			
00:00:31	-1.818	72.458			
00:00:31	-2.021	72.458			
00:00:31	-1.980	72.458			
00:00:31	-1.955	72.458			
00:00:31	-2.022	72.458			
00:00:31	-1.882	72.458			
00:00:31	-2.050	72.458			
00:00:31	-1.850	72.458			
00:00:31	-1.768	72.458			
00:00:31	-1.794	72.458			
00:00:31	-1.543	72.458			
00:00:31	-1.696	72.458			
00:00:31	-1.477	72.458			
00:00:31	-1.395	72.458			
00:00:31	-1.495	72.458			
00:00:31	-1.402	72.458			
00:00:31	-1.557	72.458			
00:00:31	-1.539	72.458			
00:00:31	-1.443	72.458			
00:00:31	-1.551	72.458			
00:00:31	-1.302	72.458			
00:00:31	-1.262	72.458			
00:00:31	-1.208	72.458			
00:00:31	-1.029	72.458			
00:00:31	-1.299	72.458			
00:00:31	-1.243	72.458			
00:00:31	-1.231	72.458			
00:00:31	-1.362	72.458			
00:00:31	-1.379	72.458			
00:00:31	-1.620	72.458			
00:00:31	-1.631	72.458			
00:00:31	-1.600	72.458			
00:00:31	-1.621	72.458			
00:00:31	-1.203	72.458			
00:00:31	-0.887	72.458			
00:00:31	-0.096	72.458			
00:00:31	1.007	72.458			
00:00:31	2.154	72.458			
00:00:31	3.773	72.458			
00:00:31	5.498	72.458			
00:00:31	7.092	72.458			
00:00:31	8.767	72.458			
00:00:31	10.208	72.458			
00:00:31	11.811	72.458			
00:00:31	12.917	72.458			
00:00:31	13.664	72.458			
00:00:31	14.385	72.458			
00:00:31	14.506	72.458			
00:00:31	14.712	72.458			
00:00:31	14.704	72.458			
00:00:31	14.349	72.458			
00:00:31	14.095	72.458			
00:00:31	13.385	72.458			
00:00:31	12.662	72.458			
00:00:31	11.869	72.458			
00:00:31	10.860	72.458			
00:00:31	10.156	73.143			
00:00:31	9.258	73.143			
00:00:31	8.617	73.143			
00:00:31	7.933	73.143			
00:00:31	6.933	73.148			
00:00:31	6.258	73.148			
00:00:31	5.349	73.148			
00:00:31	4.483	73.148			
00:00:31	3.863	73.148			
00:00:31	2.984	73.148			
00:00:31	2.354	73.148			
00:00:31	1.658	73.148			
00:00:32	0.770	72.458			
00:00:32	0.145	72.458			
00:00:32	-0.531	72.458			
00:00:32	-0.651	72.458			
00:00:32	-0.665	72.458			
00:00:32	-0.888	72.458			
00:00:32	-0.739	72.458			
00:00:32	-0.802	72.458			
00:00:32	-0.717	72.458			
00:00:32	-0.580	72.458			
00:00:32	-0.501	72.458			
00:00:32	-0.080	72.458			
00:00:32	0.020	72.458			
00:00:32	0.165	72.458			
00:00:32	0.459	72.458			
00:00:32	0.411	72.458			
00:00:32	0.614	72.458			
00:00:32	0.455	72.458			
00:00:32	0.214	72.458			
00:00:32	0.142	72.458			
00:00:32	-0.046	72.458			
00:00:32	-0.030	72.458			
00:00:32	-0.151	72.458			
00:00:32	-0.298	72.458			
00:00:32	-0.335	72.458			
00:00:32	-0.694	72.458			
00:00:32	-0.834	72.458			
00:00:32	-0.996	72.458			
00:00:32	-1.194	72.458			
00:00:32	-1.203	72.458			
00:00:32	-1.690	72.458			
00:00:32	-1.888	72.458			
00:00:32	-1.952	72.458			
00:00:32	-2.213	72.458			
00:00:32	-2.038	72.458			
00:00:32	-2.160	72.458			
00:00:32	-2.108	72.458			
00:00:32	-1.943	72.458			
00:00:32	-2.095	72.458			
00:00:32	-1.904	72.458			
00:00:32	-1.927	72.458			
00:00:32	-2.119	72.458			
00:00:32	-1.952	72.458			
00:00:32	-2.029	72.458			
00:00:32	-1.744	72.458			
00:00:32	-1.678	72.458			
00:00:32	-1.784	72.458			
00:00:32	-1.589	72.458			
00:00:32	-1.699	72.458			
00:00:32	-1.452	72.458			
00:00:32	-1.408	72.458			
00:00:32	-1.473	72.458			
00:00:32	-1.090	72.458			
00:00:32	-1.192	72.458			
00:00:32	-1.186	72.458			
00:00:32	-1.046	72.458			
00:00:32	-1.034	72.458			
00:00:32	-0.722	72.458			
00:00:32	-0.752	72.458			
00:00:32	-0.915	72.458			
00:00:32	-0.940	72.458			
00:00:32	-1.271	72.458			
00:00:32	-1.215	72.458			
00:00:32	-1.265	72.458			
00:00:32	-1.390	72.458			
00:00:32	-1.332	72.458			
00:00:32	-1.642	72.458			
00:00:32	-1.695	72.458			
00:00:32	-1.709	72.458			
00:00:32	-1.854	72.458			
00:00:32	-1.581	72.458			
00:00:32	-1.327	72.458			
00:00:32	-0.558	72.458			
00:00:32	0.459	72.458			
00:00:32	1.453	72.458			
00:00:32	2.919	72.458			
00:00:32	4.370	72.458			
00:00:32	6.263	72.458			
00:00:32	8.206	72.458			
00:00:32	9.861	72.458			
00:00:32	11.647	72.458			
00:00:32	12.989	72.458			
00:00:32	14.200	72.458			
00:00:32	15.176	72.458			
00:00:32	15.476	72.458			
00:00:32	15.768	72.458			
00:00:32	15.879	72.458			
00:00:32	15.563	72.458			
00:00:32	15.247	72.458			
00:00:32	14.527	72.458			
00:00:32	14.096	72.458			
00:00:32	13.544	72.458			
00:00:32	12.696	72.458			
00:00:32	12.000	72.458			
00:00:32	10.957	72.458			
00:00:32	10.224	72.458			
00:00:32	9.596	46.829			
00:00:32	8.630	46.829			
00:00:32	7.947	46.829			
00:00:32	6.982	46.829			
00:00:32	6.134	46.834			
00:00:32	5.344	46.834			
00:00:32	4.312	46.834			
00:00:32	3.689	46.834			
00:00:32	2.877	46.834			
00:00:32	1.907	46.834			
00:00:32	1.230	46.834			
00:00:32	0.342	46.834			
00:00:32	-0.073	46.834			
00:00:32	-0.392	46.834			
00:00:32	-0.713	46.834			
00:00:32	-0.654	46.834			
00:00:32	-0.739	46.834			
00:00:32	-0.625	46.834			
00:00:32	-0.570	46.834			
00:00:32	-0.741	46.834			
00:00:32	-0.515	46.834			
00:00:32	-0.500	46.834			
00:00:32	-0.292	46.834			
00:00:32	-0.061	46.834			
00:00:32	-0.056	46.834			
00:00:32	0.172	46.834			
00:00:32	0.212	46.834			
00:00:32	0.141	46.834			
00:00:32	0.152	46.834			
00:00:32	-0.176	46.834			
00:00:32	0.030	46.834			
00:00:32	-0.095	46.834			
00:00:33	-0.372	46.834			
00:00:33	-0.489	46.834			
00:00:33	-0.791	46.834			
00:00:33	-0.863	46.834			
00:00:33	-1.143	46.834			
00:00:33	-1.606	46.834			
00:00:33	-1.726	46.834			
00:00:33	-1.887	46.834			
00:00:33	-1.857	46.834			
00:00:33	-1.645	46.834			
00:00:33	-1.758	46.834			
00:00:33	-1.780	46.834			
00:00:33	-1.851	46.834			
00:00:33	-1.881	46.834			
00:00:33	-1.752	46.834			
00:00:33	-1.938	46.834			
00:00:33	-1.824	46.834			
00:00:33	-1.726	46.834			
00:00:33	-1.720	46.834			
00:00:33	-1.547	46.834			
00:00:33	-1.774	46.834			
00:00:33	-1.704	46.834			
00:00:33	-1.650	46.834			
00:00:33	-1.660	46.834			
00:00:33	-1.529	46.834			
00:00:33	-1.628	46.834			
00:00:33	-1.456	46.834			
00:00:33	-1.448	46.834			
00:00:33	-1.490	46.834			
00:00:33	-1.145	46.834			
00:00:33	-1.089	46.834			
00:00:33	-0.892	46.834			
00:00:33	-0.594	46.834			
00:00:33	-0.586	46.834			
00:00:33	-0.506	46.834			
00:00:33	-0.695	46.834			
00:00:33	-0.722	46.834			
00:00:33	-0.645	46.834			
00:00:33	-0.847	46.834			
00:00:33	-0.558	46.834			
00:00:33	-0.554	46.834			
00:00:33	-0.726	46.834			
00:00:33	-0.806	46.834			
00:00:33	-1.173	46.834			
00:00:33	-1.374	46.834			
00:00:33	-1.557	46.834			
00:00:33	-1.755	46.834			
00:00:33	-1.698	46.834			
00:00:33	-1.847	46.834			
00:00:33	-1.634	46.834			
00:00:33	-1.229	46.834			
00:00:33	-0.912	46.834			
00:00:33	0.091	46.834			
00:00:33	1.029	46.834			
00:00:33	2.393	46.834			
00:00:33	4.102	46.834			
00:00:33	5.723	46.834			
00:00:33	7.658	46.834			
00:00:33	9.412	46.834			
00:00:33	11.092	46.834			
00:00:33	12.674	46.834			
00:00:33	13.749	46.834			
00:00:33	14.868	46.834			
00:00:33	15.509	46.834			
00:00:33	15.731	46.834			
00:00:33	16.032	46.834			
00:00:33	15.760	46.834			
00:00:33	15.497	46.834			
00:00:33	15.017	46.834			
00:00:33	14.172	46.834			
00:00:33	13.542	46.834			
00:00:33	12.563	46.834			
00:00:33	11.745	46.834			
00:00:33	10.920	46.834			
00:00:33	9.920	46.834			
00:00:33	9.295	46.834			
00:00:33	8.368	71.776			
00:00:33	7.495	71.776			
00:00:33	6.914	71.776			
00:00:33	6.247	71.776			
00:00:33	5.780	71.781			
00:00:33	4.859	71.781			
00:00:33	3.816	71.781			
00:00:33	2.956	71.781			
00:00:33	1.908	71.781			
00:00:33	1.311	71.781			
00:00:33	0.588	71.781			
00:00:33	-0.266	71.781			
00:00:33	-0.496	71.781			
00:00:33	-0.971	71.781			
00:00:33	-1.015	71.781			
00:00:33	-1.127	71.781			
00:00:33	-1.387	71.781			
00:00:33	-1.148	71.781			
00:00:33	-1.213	71.781			
00:00:33	-0.985	71.781			
00:00:33	-0.638	71.781			
00:00:33	-0.573	71.781			
00:00:33	-0.226	71.781			
00:00:33	-0.111	71.781			
00:00:33	0.060	71.781			
00:00:33	0.280	71.781			
00:00:33	0.180	71.781			
00:00:33	0.211	71.781			
00:00:33	-0.026	71.781			
00:00:33	-0.316	71.781			
00:00:33	-0.384	71.781			
00:00:33	-0.630	71.781			
00:00:33	-0.484	71.781			
00:00:33	-0.502	71.781			
00:00:33	-0.890	71.781			
00:00:33	-0.792	71.781			
00:00:33	-0.974	71.781			
00:00:33	-1.123	71.781			
00:00:33	-1.291	71.781			
00:00:33	-1.552	71.781			
00:00:33	-1.334	71.781			
00:00:33	-1.553	71.781			
00:00:33	-1.768	71.781			
00:00:33	-1.834	71.781			
00:00:33	-2.061	71.781			
00:00:33	-2.078	71.781			
00:00:33	-2.197	71.781			
00:00:33	-2.289	71.781			
00:00:33	-2.205	71.781			
00:00:33	-2.374	71.781			
00:00:33	-2.170	71.781			
00:00:33	-2.047	71.781			
00:00:34	-2.022	71.781			
00:00:34	-1.881	71.781			
00:00:34	-2.100	71.781			
00:00:34	-1.922	71.781			
00:00:34	-1.784	71.781			
00:00:34	-1.727	71.781			
00:00:34	-1.384	71.781			
00:00:34	-1.346	71.781			
00:00:34	-1.157	71.781			
00:00:34	-1.022	71.781			
00:00:34	-1.178	71.781			
00:00:34	-0.947	71.781			
00:00:34	-0.961	71.781			
00:00:34	-0.893	71.781			
00:00:34	-0.670	71.781			
00:00:34	-0.819	71.781			
00:00:34	-0.723	71.781			
00:00:34	-0.798	71.781			
00:00:34	-1.006	71.781			
00:00:34	-1.061	71.781			
00:00:34	-1.282	71.781			
00:00:34	-1.391	71.781			
00:00:34	-1.458	71.781			
00:00:34	-1.530	71.781			
00:00:34	-1.302	71.781			
00:00:34	-1.374	71.781			
00:00:34	-1.405	71.781			
00:00:34	-1.375	71.781			
00:00:34	-1.510	71.781			
00:00:34	-1.208	71.781			
00:00:34	-1.102	71.781			
00:00:34	-0.714	71.781			
00:00:34	0.081	71.781			
00:00:34	0.970	71.781			
00:00:34	2.622	71.781			
00:00:34	4.153	71.781			
00:00:34	5.919	71.781			
00:00:34	7.832	71.781			
00:00:34	9.519	71.781			
00:00:34	11.376	71.781			
00:00:34	12.674	71.781			
00:00:34	13.709	71.781			
00:00:34	14.768	71.781			
00:00:34	15.180	71.781			
00:00:34	15.533	71.781			
00:00:34	15.437	71.781			
00:00:34	15.022	71.781			
00:00:34	14.719	71.781			
00:00:34	13.950	71.781			
00:00:34	13.364	71.781			
00:00:34	12.760	71.781			
00:00:34	11.794	71.781			
00:00:34	11.263	71.776			
00:00:34	10.407	71.776			
00:00:34	9.650	71.776			
00:00:34	9.076	71.776			
00:00:34	8.101	71.781			
00:00:34	7.417	71.781			
00:00:34	6.482	71.781			
00:00:34	5.612	71.781			
00:00:34	4.852	71.781			
00:00:34	3.705	71.781			
00:00:34	2.847	71.781			
00:00:34	2.026	71.781			
00:00:34	1.308	71.781			
00:00:34	0.945	71.781			
00:00:34	0.243	71.781			
00:00:34	-0.331	71.781			
00:00:34	-0.860	71.781			
00:00:34	-1.203	71.781			
00:00:34	-1.140	71.781			
00:00:34	-1.083	71.781			
00:00:34	-0.938	71.781			
00:00:34	-0.536	71.781			
00:00:34	-0.301	71.781			
00:00:34	0.137	71.781			
00:00:34	0.191	71.781			
00:00:34	0.143	71.781			
00:00:34	0.336	71.781			
00:00:34	0.264	71.781			
00:00:34	0.409	71.781			
00:00:34	0.354	71.781			
00:00:34	0.133	71.781			
00:00:34	0.143	71.781			
00:00:34	-0.176	71.781			
00:00:34	-0.231	71.781			
00:00:34	-0.251	71.781			
00:00:34	-0.363	71.781			
00:00:34	-0.293	71.781			
00:00:34	-0.571	71.781			
00:00:34	-0.705	71.781			
00:00:34	-0.773	71.781			
00:00:34	-1.126	71.781			
00:00:34	-1.125	71.781			
00:00:34	-1.430	71.781			
00:00:34	-1.485	71.781			
00:00:34	-1.427	71.781			
00:00:34	-1.559	71.781			
00:00:34	-1.383	71.781			
00:00:34	-1.475	71.781			
00:00:34	-1.618	71.781			
00:00:34	-1.618	71.781			
00:00:34	-1.836	71.781			
00:00:34	-1.727	71.781			
00:00:34	-1.725	71.781			
00:00:34	-1.884	71.781			
00:00:34	-1.647	71.781			
00:00:34	-1.815	71.781			
00:00:34	-1.739	71.781			
00:00:34	-1.714	71.781			
00:00:34	-1.732	71.781			
00:00:34	-1.306	71.781			
00:00:34	-1.235	71.781			
00:00:34	-1.234	71.781			
00:00:34	-1.204	71.781			
00:00:34	-1.336	71.781			
00:00:34	-1.011	71.781			
00:00:34	-0.921	71.781			
