RAW Data export file (tab separated)


Client:	,kozawa
Session:	kozawa4
Date:	06-07-2020
Time:	10:36:19
Duration:	88	Seconds.
Output rate:	128	Samples/sec.

hh:mm:ss	128 SPS	32 SPS	
TIME	Sensor-G:BVP	HR (BVP)	Events	Segments	


00:00:00	-2.758	70.000			
00:00:00	-3.359	70.000			
00:00:00	-2.943	70.000			
00:00:00	-3.250	70.000			
00:00:00	-3.171	70.000			
00:00:00	-2.914	70.000			
00:00:00	-3.376	70.000			
00:00:00	-3.313	70.000			
00:00:00	-3.642	70.000			
00:00:00	-3.693	70.000			
00:00:00	-3.580	70.000			
00:00:00	-3.823	70.000			
00:00:00	-3.526	70.000			
00:00:00	-3.721	70.000			
00:00:00	-3.671	70.000			
00:00:00	-3.089	70.000			
00:00:00	-3.177	70.000			
00:00:00	-2.777	70.000			
00:00:00	-2.806	70.000			
00:00:00	-2.962	70.000			
00:00:00	-2.371	70.000			
00:00:00	-2.497	70.000			
00:00:00	-2.313	70.000			
00:00:00	-2.402	70.000			
00:00:00	-2.863	70.000			
00:00:00	-2.677	70.000			
00:00:00	-3.112	70.000			
00:00:00	-2.991	70.000			
00:00:00	-2.783	70.000			
00:00:00	-3.137	70.000			
00:00:00	-2.796	70.000			
00:00:00	-2.903	70.000			
00:00:00	-2.820	70.000			
00:00:00	-2.521	70.000			
00:00:00	-2.562	70.000			
00:00:00	-1.826	70.000			
00:00:00	-1.516	70.000			
00:00:00	-0.710	70.000			
00:00:00	0.759	70.000			
00:00:00	1.677	70.000			
00:00:00	3.417	70.000			
00:00:00	5.085	70.000			
00:00:00	6.463	70.000			
00:00:00	8.373	70.000			
00:00:00	9.550	70.000			
00:00:00	11.076	70.000			
00:00:00	12.203	70.000			
00:00:00	12.772	70.000			
00:00:00	13.866	70.000			
00:00:00	13.893	70.000			
00:00:00	13.882	70.000			
00:00:00	13.770	70.000			
00:00:00	12.999	70.000			
00:00:00	12.772	70.000			
00:00:00	12.006	70.000			
00:00:00	11.265	70.000			
00:00:00	10.909	70.000			
00:00:00	9.826	70.000			
00:00:00	9.420	70.000			
00:00:00	8.488	70.000			
00:00:00	7.496	70.000			
00:00:00	7.084	70.000			
00:00:00	6.103	70.000			
00:00:00	5.644	70.000			
00:00:00	4.906	70.000			
00:00:00	3.828	70.000			
00:00:00	3.217	70.000			
00:00:00	1.927	70.000			
00:00:00	1.288	70.000			
00:00:00	0.824	70.000			
00:00:00	-0.159	70.000			
00:00:00	-0.376	70.000			
00:00:00	-1.298	70.000			
00:00:00	-1.547	70.000			
00:00:00	-1.547	70.000			
00:00:00	-2.028	70.000			
00:00:00	-1.908	70.000			
00:00:00	-2.011	70.000			
00:00:00	-1.900	70.000			
00:00:00	-1.351	70.000			
00:00:00	-1.632	70.000			
00:00:00	-1.277	70.000			
00:00:00	-0.872	70.000			
00:00:00	-0.950	70.000			
00:00:00	-0.583	70.000			
00:00:00	-0.868	70.000			
00:00:00	-0.848	70.000			
00:00:00	-1.038	70.000			
00:00:00	-1.354	70.000			
00:00:00	-1.058	70.000			
00:00:00	-1.253	70.000			
00:00:00	-1.226	70.000			
00:00:00	-1.163	70.000			
00:00:00	-1.779	70.000			
00:00:00	-1.490	70.000			
00:00:00	-1.835	70.000			
00:00:00	-2.220	70.000			
00:00:00	-2.243	70.000			
00:00:00	-2.753	70.000			
00:00:00	-2.605	70.000			
00:00:00	-2.866	70.000			
00:00:00	-3.122	70.000			
00:00:00	-3.008	70.000			
00:00:00	-3.457	70.000			
00:00:00	-3.410	70.000			
00:00:00	-3.480	70.000			
00:00:00	-3.520	70.000			
00:00:00	-2.924	70.000			
00:00:00	-3.169	70.000			
00:00:00	-2.984	70.000			
00:00:00	-2.883	70.000			
00:00:00	-3.242	70.000			
00:00:00	-2.715	70.000			
00:00:00	-3.047	70.000			
00:00:00	-2.959	70.000			
00:00:00	-2.571	70.000			
00:00:00	-2.862	70.000			
00:00:00	-2.479	70.000			
00:00:00	-2.636	70.000			
00:00:00	-2.627	70.000			
00:00:00	-2.022	70.000			
00:00:00	-2.289	70.000			
00:00:00	-2.050	70.000			
00:00:00	-2.140	70.000			
00:00:00	-2.400	70.000			
00:00:00	-1.992	70.000			
00:00:00	-2.478	70.000			
00:00:00	-2.526	70.000			
00:00:01	-2.594	70.000			
00:00:01	-2.937	70.000			
00:00:01	-2.645	70.000			
00:00:01	-2.812	70.000			
00:00:01	-2.594	70.000			
00:00:01	-2.398	70.000			
00:00:01	-2.726	70.000			
00:00:01	-2.294	70.000			
00:00:01	-2.424	70.000			
00:00:01	-2.098	70.000			
00:00:01	-1.065	70.000			
00:00:01	-0.473	70.000			
00:00:01	0.966	70.000			
00:00:01	2.179	70.000			
00:00:01	3.542	70.000			
00:00:01	5.392	70.000			
00:00:01	6.641	70.000			
00:00:01	8.392	70.000			
00:00:01	9.892	70.000			
00:00:01	10.989	70.000			
00:00:01	12.246	70.000			
00:00:01	12.520	70.000			
00:00:01	12.935	70.000			
00:00:01	13.334	70.000			
00:00:01	12.922	70.000			
00:00:01	13.119	70.000			
00:00:01	12.378	70.000			
00:00:01	12.012	70.000			
00:00:01	11.566	70.000			
00:00:01	10.319	70.000			
00:00:01	9.750	70.000			
00:00:01	8.915	70.000			
00:00:01	7.961	70.459			
00:00:01	7.622	70.459			
00:00:01	6.527	70.459			
00:00:01	6.123	70.459			
00:00:01	5.515	70.464			
00:00:01	4.471	70.464			
00:00:01	3.759	70.464			
00:00:01	2.480	70.464			
00:00:01	1.816	70.464			
00:00:01	0.952	70.464			
00:00:01	0.024	70.464			
00:00:01	-0.343	70.464			
00:00:01	-1.115	70.464			
00:00:01	-1.180	70.464			
00:00:01	-1.286	70.464			
00:00:01	-2.079	70.464			
00:00:01	-1.769	70.464			
00:00:01	-1.954	70.464			
00:00:01	-1.772	70.464			
00:00:01	-1.309	70.464			
00:00:01	-1.520	70.464			
00:00:01	-1.022	70.464			
00:00:01	-0.937	70.464			
00:00:01	-0.916	70.464			
00:00:01	-0.419	70.464			
00:00:01	-0.445	70.464			
00:00:01	-0.138	70.464			
00:00:01	-0.299	70.464			
00:00:01	-0.685	70.464			
00:00:01	-0.361	70.464			
00:00:01	-0.643	70.464			
00:00:01	-0.402	70.464			
00:00:01	-0.513	70.464			
00:00:01	-0.915	70.464			
00:00:01	-0.628	70.464			
00:00:01	-1.243	70.464			
00:00:01	-1.434	70.464			
00:00:01	-1.305	70.464			
00:00:01	-1.730	70.464			
00:00:01	-1.600	70.464			
00:00:01	-2.049	70.464			
00:00:01	-2.307	70.464			
00:00:01	-2.207	70.464			
00:00:01	-2.686	70.464			
00:00:01	-2.585	70.464			
00:00:01	-2.857	70.464			
00:00:01	-3.011	70.464			
00:00:01	-2.880	70.464			
00:00:01	-3.417	70.464			
00:00:01	-3.210	70.464			
00:00:01	-3.103	70.464			
00:00:01	-3.278	70.464			
00:00:01	-3.018	70.464			
00:00:01	-3.395	70.464			
00:00:01	-3.123	70.464			
00:00:01	-2.754	70.464			
00:00:01	-2.890	70.464			
00:00:01	-2.355	70.464			
00:00:01	-2.473	70.464			
00:00:01	-2.092	70.464			
00:00:01	-1.891	70.464			
00:00:01	-2.194	70.464			
00:00:01	-1.915	70.464			
00:00:01	-1.974	70.464			
00:00:01	-2.029	70.464			
00:00:01	-1.916	70.464			
00:00:01	-2.538	70.464			
00:00:01	-2.409	70.464			
00:00:01	-2.679	70.464			
00:00:01	-2.986	70.464			
00:00:01	-2.620	70.464			
00:00:01	-2.968	70.464			
00:00:01	-2.925	70.464			
00:00:01	-2.947	70.464			
00:00:01	-3.104	70.464			
00:00:01	-2.598	70.464			
00:00:01	-2.805	70.464			
00:00:01	-2.494	70.464			
00:00:01	-1.840	70.464			
00:00:01	-1.630	70.464			
00:00:01	-0.426	70.464			
00:00:01	0.444	70.464			
00:00:01	1.971	70.464			
00:00:01	3.885	70.464			
00:00:01	4.970	70.464			
00:00:01	6.914	70.464			
00:00:01	8.364	70.464			
00:00:01	9.614	70.464			
00:00:01	11.048	70.464			
00:00:01	11.583	70.464			
00:00:01	12.554	70.464			
00:00:01	12.893	70.464			
00:00:01	12.825	70.464			
00:00:01	13.405	70.464			
00:00:01	12.992	70.464			
00:00:01	12.600	70.464			
00:00:02	12.137	70.464			
00:00:02	11.254	70.464			
00:00:02	11.150	70.464			
00:00:02	10.224	70.464			
00:00:02	9.600	70.464			
00:00:02	9.079	70.464			
00:00:02	8.069	70.464			
00:00:02	7.625	70.464			
00:00:02	6.696	75.294			
00:00:02	5.838	75.294			
00:00:02	5.426	75.294			
00:00:02	4.253	75.294			
00:00:02	3.556	75.299			
00:00:02	2.507	75.299			
00:00:02	1.307	75.299			
00:00:02	0.708	75.299			
00:00:02	-0.210	75.299			
00:00:02	-0.602	75.299			
00:00:02	-1.220	75.299			
00:00:02	-1.935	75.299			
00:00:02	-1.902	75.299			
00:00:02	-2.345	75.299			
00:00:02	-2.253	75.299			
00:00:02	-2.000	75.299			
00:00:02	-2.105	75.299			
00:00:02	-1.534	75.299			
00:00:02	-1.644	75.299			
00:00:02	-1.602	75.299			
00:00:02	-1.093	75.299			
00:00:02	-1.333	75.299			
00:00:02	-0.823	75.299			
00:00:02	-0.887	75.299			
00:00:02	-0.748	75.299			
00:00:02	-0.375	75.299			
00:00:02	-0.783	75.299			
00:00:02	-0.796	75.299			
00:00:02	-0.837	75.299			
00:00:02	-1.154	75.299			
00:00:02	-1.038	75.299			
00:00:02	-1.803	75.299			
00:00:02	-1.834	75.299			
00:00:02	-1.900	75.299			
00:00:02	-2.441	75.299			
00:00:02	-2.209	75.299			
00:00:02	-2.539	75.299			
00:00:02	-2.683	75.299			
00:00:02	-2.598	75.299			
00:00:02	-3.046	75.299			
00:00:02	-2.874	75.299			
00:00:02	-3.239	75.299			
00:00:02	-3.430	75.299			
00:00:02	-3.204	75.299			
00:00:02	-3.718	75.299			
00:00:02	-3.386	75.299			
00:00:02	-3.357	75.299			
00:00:02	-3.475	75.299			
00:00:02	-3.218	75.299			
00:00:02	-3.614	75.299			
00:00:02	-3.285	75.299			
00:00:02	-3.088	75.299			
00:00:02	-3.153	75.299			
00:00:02	-2.672	75.299			
00:00:02	-2.719	75.299			
00:00:02	-2.334	75.299			
00:00:02	-2.130	75.299			
00:00:02	-2.591	75.299			
00:00:02	-2.213	75.299			
00:00:02	-2.473	75.299			
00:00:02	-2.485	75.299			
00:00:02	-2.140	75.299			
00:00:02	-2.528	75.299			
00:00:02	-2.249	75.299			
00:00:02	-2.425	75.299			
00:00:02	-2.608	75.299			
00:00:02	-2.194	75.299			
00:00:02	-2.574	75.299			
00:00:02	-2.540	75.299			
00:00:02	-2.553	75.299			
00:00:02	-2.655	75.299			
00:00:02	-2.229	75.299			
00:00:02	-2.621	75.299			
00:00:02	-2.553	75.299			
00:00:02	-2.527	75.299			
00:00:02	-2.793	75.299			
00:00:02	-2.321	75.299			
00:00:02	-2.257	75.299			
00:00:02	-1.671	75.299			
00:00:02	-0.455	75.299			
00:00:02	0.358	75.299			
00:00:02	2.210	75.299			
00:00:02	3.694	75.299			
00:00:02	5.323	75.299			
00:00:02	7.220	75.299			
00:00:02	8.646	75.299			
00:00:02	10.605	75.299			
00:00:02	11.915	75.299			
00:00:02	12.918	75.299			
00:00:02	13.999	75.299			
00:00:02	14.098	75.299			
00:00:02	14.410	75.299			
00:00:02	14.391	75.299			
00:00:02	14.083	75.299			
00:00:02	14.140	75.299			
00:00:02	13.305	75.299			
00:00:02	12.715	75.299			
00:00:02	12.273	75.299			
00:00:02	11.320	75.299			
00:00:02	10.952	75.299			
00:00:02	9.992	74.563			
00:00:02	9.485	74.563			
00:00:02	9.114	74.563			
00:00:02	8.080	74.563			
00:00:02	7.626	74.568			
00:00:02	6.749	74.568			
00:00:02	5.869	74.568			
00:00:02	5.226	74.568			
00:00:02	3.749	74.568			
00:00:02	3.077	74.568			
00:00:02	2.019	74.568			
00:00:02	0.821	74.568			
00:00:02	0.054	74.568			
00:00:02	-0.987	74.568			
00:00:02	-1.307	74.568			
00:00:02	-1.863	74.568			
00:00:02	-2.414	74.568			
00:00:02	-2.165	74.568			
00:00:02	-2.481	74.568			
00:00:02	-2.459	74.568			
00:00:03	-2.268	74.568			
00:00:03	-2.382	74.568			
00:00:03	-1.786	74.568			
00:00:03	-1.711	74.568			
00:00:03	-1.566	74.568			
00:00:03	-1.165	74.568			
00:00:03	-1.293	74.568			
00:00:03	-0.793	74.568			
00:00:03	-0.959	74.568			
00:00:03	-0.961	74.568			
00:00:03	-0.561	74.568			
00:00:03	-0.898	74.568			
00:00:03	-0.767	74.568			
00:00:03	-0.990	74.568			
00:00:03	-1.499	74.568			
00:00:03	-1.259	74.568			
00:00:03	-1.703	74.568			
00:00:03	-1.744	74.568			
00:00:03	-1.997	74.568			
00:00:03	-2.637	74.568			
00:00:03	-2.580	74.568			
00:00:03	-3.013	74.568			
00:00:03	-3.327	74.568			
00:00:03	-3.249	74.568			
00:00:03	-3.571	74.568			
00:00:03	-3.433	74.568			
00:00:03	-3.718	74.568			
00:00:03	-3.832	74.568			
00:00:03	-3.540	74.568			
00:00:03	-3.978	74.568			
00:00:03	-3.831	74.568			
00:00:03	-4.005	74.568			
00:00:03	-4.126	74.568			
00:00:03	-3.719	74.568			
00:00:03	-4.034	74.568			
00:00:03	-3.612	74.568			
00:00:03	-3.267	74.568			
00:00:03	-3.451	74.568			
00:00:03	-3.017	74.568			
00:00:03	-3.275	74.568			
00:00:03	-3.013	74.568			
00:00:03	-2.721	74.568			
00:00:03	-2.759	74.568			
00:00:03	-2.255	74.568			
00:00:03	-2.327	74.568			
00:00:03	-2.251	74.568			
00:00:03	-2.149	74.568			
00:00:03	-2.661	74.568			
00:00:03	-2.500	74.568			
00:00:03	-2.823	74.568			
00:00:03	-3.031	74.568			
00:00:03	-2.645	74.568			
00:00:03	-3.042	74.568			
00:00:03	-2.733	74.568			
00:00:03	-2.586	74.568			
00:00:03	-2.796	74.568			
00:00:03	-2.573	74.568			
00:00:03	-2.894	74.568			
00:00:03	-2.642	74.568			
00:00:03	-2.560	74.568			
00:00:03	-2.739	74.568			
00:00:03	-2.287	74.568			
00:00:03	-2.082	74.568			
00:00:03	-1.402	74.568			
00:00:03	-0.303	74.568			
00:00:03	0.296	74.568			
00:00:03	2.062	74.568			
00:00:03	3.469	74.568			
00:00:03	5.225	74.568			
00:00:03	7.336	74.568			
00:00:03	8.503	74.568			
00:00:03	10.410	74.568			
00:00:03	11.813	74.568			
00:00:03	12.839	74.568			
00:00:03	13.990	74.568			
00:00:03	14.003	74.568			
00:00:03	14.274	74.568			
00:00:03	14.326	74.568			
00:00:03	13.856	74.568			
00:00:03	13.865	74.568			
00:00:03	13.135	74.568			
00:00:03	12.814	74.568			
00:00:03	12.181	74.568			
00:00:03	11.096	74.568			
00:00:03	10.721	74.568			
00:00:03	9.795	74.568			
00:00:03	9.037	74.568			
00:00:03	8.285	74.568			
00:00:03	7.110	73.143			
00:00:03	6.856	73.143			
00:00:03	5.996	73.143			
00:00:03	4.929	73.143			
00:00:03	4.259	73.148			
00:00:03	2.896	73.148			
00:00:03	2.342	73.148			
00:00:03	1.456	73.148			
00:00:03	0.663	73.148			
00:00:03	0.440	73.148			
00:00:03	-0.486	73.148			
00:00:03	-0.959	73.148			
00:00:03	-1.467	73.148			
00:00:03	-2.287	73.148			
00:00:03	-2.064	73.148			
00:00:03	-2.452	73.148			
00:00:03	-2.512	73.148			
00:00:03	-2.226	73.148			
00:00:03	-2.389	73.148			
00:00:03	-1.930	73.148			
00:00:03	-1.863	73.148			
00:00:03	-1.742	73.148			
00:00:03	-1.376	73.148			
00:00:03	-1.415	73.148			
00:00:03	-0.899	73.148			
00:00:03	-0.943	73.148			
00:00:03	-1.079	73.148			
00:00:03	-0.886	73.148			
00:00:03	-1.382	73.148			
00:00:03	-1.159	73.148			
00:00:03	-1.321	73.148			
00:00:03	-1.608	73.148			
00:00:03	-1.240	73.148			
00:00:03	-1.731	73.148			
00:00:03	-1.987	73.148			
00:00:03	-2.159	73.148			
00:00:03	-2.695	73.148			
00:00:03	-2.634	73.148			
00:00:03	-3.108	73.148			
00:00:03	-3.235	73.148			
00:00:04	-3.209	73.148			
00:00:04	-3.823	73.148			
00:00:04	-3.597	73.148			
00:00:04	-3.927	73.148			
00:00:04	-4.043	73.148			
00:00:04	-3.797	73.148			
00:00:04	-3.952	73.148			
00:00:04	-3.731	73.148			
00:00:04	-3.858	73.148			
00:00:04	-4.004	73.148			
00:00:04	-3.621	73.148			
00:00:04	-4.055	73.148			
00:00:04	-3.715	73.148			
00:00:04	-3.252	73.148			
00:00:04	-3.254	73.148			
00:00:04	-2.931	73.148			
00:00:04	-3.092	73.148			
00:00:04	-2.746	73.148			
00:00:04	-2.534	73.148			
00:00:04	-2.664	73.148			
00:00:04	-2.169	73.148			
00:00:04	-2.265	73.148			
00:00:04	-2.393	73.148			
00:00:04	-2.017	73.148			
00:00:04	-2.581	73.148			
00:00:04	-2.560	73.148			
00:00:04	-2.874	73.148			
00:00:04	-2.809	73.148			
00:00:04	-2.467	73.148			
00:00:04	-2.819	73.148			
00:00:04	-2.681	73.148			
00:00:04	-2.675	73.148			
00:00:04	-2.977	73.148			
00:00:04	-2.801	73.148			
00:00:04	-3.121	73.148			
00:00:04	-2.999	73.148			
00:00:04	-2.834	73.148			
00:00:04	-3.093	73.148			
00:00:04	-2.432	73.148			
00:00:04	-2.601	73.148			
00:00:04	-2.191	73.148			
00:00:04	-1.282	73.148			
00:00:04	-0.598	73.148			
00:00:04	0.973	73.148			
00:00:04	2.361	73.148			
00:00:04	3.919	73.148			
00:00:04	5.825	73.148			
00:00:04	7.247	73.148			
00:00:04	9.274	73.148			
00:00:04	10.643	73.148			
00:00:04	11.740	73.148			
00:00:04	13.165	73.148			
00:00:04	13.443	73.148			
00:00:04	13.937	73.148			
00:00:04	14.161	73.148			
00:00:04	13.947	73.148			
00:00:04	14.064	73.148			
00:00:04	13.304	73.148			
00:00:04	12.556	73.148			
00:00:04	11.976	73.148			
00:00:04	10.816	73.148			
00:00:04	10.311	73.148			
00:00:04	9.229	73.148			
00:00:04	8.704	73.148			
00:00:04	8.259	73.143			
00:00:04	6.972	73.143			
00:00:04	6.577	73.143			
00:00:04	5.721	73.143			
00:00:04	4.946	73.148			
00:00:04	4.458	73.148			
00:00:04	3.058	73.148			
00:00:04	2.142	73.148			
00:00:04	1.103	73.148			
00:00:04	-0.147	73.148			
00:00:04	-0.777	73.148			
00:00:04	-1.790	73.148			
00:00:04	-2.014	73.148			
00:00:04	-2.270	73.148			
00:00:04	-2.868	73.148			
00:00:04	-2.758	73.148			
00:00:04	-3.181	73.148			
00:00:04	-3.028	73.148			
00:00:04	-2.615	73.148			
00:00:04	-2.673	73.148			
00:00:04	-2.084	73.148			
00:00:04	-1.817	73.148			
00:00:04	-1.557	73.148			
00:00:04	-1.056	73.148			
00:00:04	-1.458	73.148			
00:00:04	-1.047	73.148			
00:00:04	-1.236	73.148			
00:00:04	-1.347	73.148			
00:00:04	-0.871	73.148			
00:00:04	-1.268	73.148			
00:00:04	-1.242	73.148			
00:00:04	-1.310	73.148			
00:00:04	-1.609	73.148			
00:00:04	-1.593	73.148			
00:00:04	-2.208	73.148			
00:00:04	-2.273	73.148			
00:00:04	-2.308	73.148			
00:00:04	-2.817	73.148			
00:00:04	-2.607	73.148			
00:00:04	-2.977	73.148			
00:00:04	-3.091	73.148			
00:00:04	-3.153	73.148			
00:00:04	-3.745	73.148			
00:00:04	-3.536	73.148			
00:00:04	-3.613	73.148			
00:00:04	-3.870	73.148			
00:00:04	-3.772	73.148			
00:00:04	-4.174	73.148			
00:00:04	-3.947	73.148			
00:00:04	-4.160	73.148			
00:00:04	-4.585	73.148			
00:00:04	-4.185	73.148			
00:00:04	-4.465	73.148			
00:00:04	-4.138	73.148			
00:00:04	-3.960	73.148			
00:00:04	-3.880	73.148			
00:00:04	-3.465	73.148			
00:00:04	-3.569	73.148			
00:00:04	-3.374	73.148			
00:00:04	-3.021	73.148			
00:00:04	-3.148	73.148			
00:00:04	-2.545	73.148			
00:00:04	-2.604	73.148			
00:00:04	-2.647	73.148			
00:00:05	-2.326	73.148			
00:00:05	-2.581	73.148			
00:00:05	-2.351	73.148			
00:00:05	-2.657	73.148			
00:00:05	-2.899	73.148			
00:00:05	-2.549	73.148			
00:00:05	-2.925	73.148			
00:00:05	-2.719	73.148			
00:00:05	-2.871	73.148			
00:00:05	-3.276	73.148			
00:00:05	-3.092	73.148			
00:00:05	-3.469	73.148			
00:00:05	-3.291	73.148			
00:00:05	-3.272	73.148			
00:00:05	-3.546	73.148			
00:00:05	-3.092	73.148			
00:00:05	-3.255	73.148			
00:00:05	-2.922	73.148			
00:00:05	-2.298	73.148			
00:00:05	-2.045	73.148			
00:00:05	-0.965	73.148			
00:00:05	0.253	73.148			
00:00:05	1.688	73.148			
00:00:05	3.702	73.148			
00:00:05	5.092	73.148			
00:00:05	7.165	73.148			
00:00:05	8.955	73.148			
00:00:05	10.492	73.148			
00:00:05	12.247	73.148			
00:00:05	13.053	73.148			
00:00:05	14.095	73.148			
00:00:05	14.915	73.148			
00:00:05	14.829	73.148			
00:00:05	15.326	73.148			
00:00:05	15.024	73.148			
00:00:05	14.902	73.148			
00:00:05	14.689	73.148			
00:00:05	13.607	73.148			
00:00:05	13.075	73.148			
00:00:05	11.962	73.148			
00:00:05	11.122	73.148			
00:00:05	10.453	73.148			
00:00:05	9.143	73.148			
00:00:05	8.540	73.148			
00:00:05	7.632	71.776			
00:00:05	6.871	71.776			
00:00:05	6.454	71.776			
00:00:05	5.263	71.776			
00:00:05	4.582	71.781			
00:00:05	3.633	71.781			
00:00:05	2.501	71.781			
00:00:05	1.974	71.781			
00:00:05	0.694	71.781			
00:00:05	-0.031	71.781			
00:00:05	-0.660	71.781			
00:00:05	-1.556	71.781			
00:00:05	-1.721	71.781			
00:00:05	-2.463	71.781			
00:00:05	-2.592	71.781			
00:00:05	-2.359	71.781			
00:00:05	-2.723	71.781			
00:00:05	-2.299	71.781			
00:00:05	-2.323	71.781			
00:00:05	-2.205	71.781			
00:00:05	-1.705	71.781			
00:00:05	-1.794	71.781			
00:00:05	-1.416	71.781			
00:00:05	-1.283	71.781			
00:00:05	-1.375	71.781			
00:00:05	-1.054	71.781			
00:00:05	-1.541	71.781			
00:00:05	-1.277	71.781			
00:00:05	-1.140	71.781			
00:00:05	-1.611	71.781			
00:00:05	-1.341	71.781			
00:00:05	-1.801	71.781			
00:00:05	-2.020	71.781			
00:00:05	-2.105	71.781			
00:00:05	-2.681	71.781			
00:00:05	-2.559	71.781			
00:00:05	-2.920	71.781			
00:00:05	-3.213	71.781			
00:00:05	-3.276	71.781			
00:00:05	-3.749	71.781			
00:00:05	-3.535	71.781			
00:00:05	-3.755	71.781			
00:00:05	-4.153	71.781			
00:00:05	-3.983	71.781			
00:00:05	-4.200	71.781			
00:00:05	-3.999	71.781			
00:00:05	-3.985	71.781			
00:00:05	-4.289	71.781			
00:00:05	-3.814	71.781			
00:00:05	-4.095	71.781			
00:00:05	-3.891	71.781			
00:00:05	-3.689	71.781			
00:00:05	-4.035	71.781			
00:00:05	-3.433	71.781			
00:00:05	-3.400	71.781			
00:00:05	-3.381	71.781			
00:00:05	-3.174	71.781			
00:00:05	-3.239	71.781			
00:00:05	-2.687	71.781			
00:00:05	-2.936	71.781			
00:00:05	-2.856	71.781			
00:00:05	-2.397	71.781			
00:00:05	-2.808	71.781			
00:00:05	-2.558	71.781			
00:00:05	-2.675	71.781			
00:00:05	-2.803	71.781			
00:00:05	-2.526	71.781			
00:00:05	-2.955	71.781			
00:00:05	-2.894	71.781			
00:00:05	-2.996	71.781			
00:00:05	-3.218	71.781			
00:00:05	-2.826	71.781			
00:00:05	-3.258	71.781			
00:00:05	-3.203	71.781			
00:00:05	-2.962	71.781			
00:00:05	-3.341	71.781			
00:00:05	-3.075	71.781			
00:00:05	-3.268	71.781			
00:00:05	-3.305	71.781			
00:00:05	-3.075	71.781			
00:00:05	-3.096	71.781			
00:00:05	-2.267	71.781			
00:00:05	-1.735	71.781			
00:00:05	-0.914	71.781			
00:00:06	0.631	71.781			
00:00:06	1.747	71.781			
00:00:06	3.598	71.781			
00:00:06	5.353	71.781			
00:00:06	7.253	71.781			
00:00:06	9.561	71.781			
00:00:06	10.798	71.781			
00:00:06	12.444	71.781			
00:00:06	13.717	71.781			
00:00:06	14.246	71.781			
00:00:06	15.097	71.781			
00:00:06	15.073	71.781			
00:00:06	15.026	71.781			
00:00:06	15.021	71.781			
00:00:06	14.140	71.781			
00:00:06	13.642	71.781			
00:00:06	12.604	71.781			
00:00:06	11.749	71.781			
00:00:06	11.253	71.781			
00:00:06	10.080	71.781			
00:00:06	9.621	72.453			
00:00:06	8.695	72.453			
00:00:06	7.817	72.453			
00:00:06	7.457	72.453			
00:00:06	6.428	72.458			
00:00:06	5.824	72.458			
00:00:06	5.128	72.458			
00:00:06	3.956	72.458			
00:00:06	3.416	72.458			
00:00:06	2.183	72.458			
00:00:06	1.455	72.458			
00:00:06	0.584	72.458			
00:00:06	-0.659	72.458			
00:00:06	-1.076	72.458			
00:00:06	-1.804	72.458			
00:00:06	-2.199	72.458			
00:00:06	-2.202	72.458			
00:00:06	-2.577	72.458			
00:00:06	-2.318	72.458			
00:00:06	-2.675	72.458			
00:00:06	-2.855	72.458			
00:00:06	-2.384	72.458			
00:00:06	-2.431	72.458			
00:00:06	-1.953	72.458			
00:00:06	-1.641	72.458			
00:00:06	-1.612	72.458			
00:00:06	-1.056	72.458			
00:00:06	-1.285	72.458			
00:00:06	-1.045	72.458			
00:00:06	-0.975	72.458			
00:00:06	-1.248	72.458			
00:00:06	-0.719	72.458			
00:00:06	-1.006	72.458			
00:00:06	-0.940	72.458			
00:00:06	-1.047	72.458			
00:00:06	-1.789	72.458			
00:00:06	-1.795	72.458			
00:00:06	-2.210	72.458			
00:00:06	-2.536	72.458			
00:00:06	-2.655	72.458			
00:00:06	-3.385	72.458			
00:00:06	-3.321	72.458			
00:00:06	-3.591	72.458			
00:00:06	-3.939	72.458			
00:00:06	-3.651	72.458			
00:00:06	-4.183	72.458			
00:00:06	-3.971	72.458			
00:00:06	-3.972	72.458			
00:00:06	-4.324	72.458			
00:00:06	-3.955	72.458			
00:00:06	-4.218	72.458			
00:00:06	-4.212	72.458			
00:00:06	-4.184	72.458			
00:00:06	-4.361	72.458			
00:00:06	-3.827	72.458			
00:00:06	-4.112	72.458			
00:00:06	-3.865	72.458			
00:00:06	-3.324	72.458			
00:00:06	-3.566	72.458			
00:00:06	-3.077	72.458			
00:00:06	-3.091	72.458			
00:00:06	-3.044	72.458			
00:00:06	-2.608	72.458			
00:00:06	-2.856	72.458			
00:00:06	-2.525	72.458			
00:00:06	-2.546	72.458			
00:00:06	-2.636	72.458			
00:00:06	-2.350	72.458			
00:00:06	-2.873	72.458			
00:00:06	-2.788	72.458			
00:00:06	-2.800	72.458			
00:00:06	-3.128	72.458			
00:00:06	-2.745	72.458			
00:00:06	-3.095	72.458			
00:00:06	-2.971	72.458			
00:00:06	-2.808	72.458			
00:00:06	-3.183	72.458			
00:00:06	-2.870	72.458			
00:00:06	-3.107	72.458			
00:00:06	-3.245	72.458			
00:00:06	-2.929	72.458			
00:00:06	-3.315	72.458			
00:00:06	-2.982	72.458			
00:00:06	-2.990	72.458			
00:00:06	-2.732	72.458			
00:00:06	-1.935	72.458			
00:00:06	-1.513	72.458			
00:00:06	-0.171	72.458			
00:00:06	1.048	72.458			
00:00:06	2.553	72.458			
00:00:06	4.807	72.458			
00:00:06	6.410	72.458			
00:00:06	8.173	72.458			
00:00:06	10.035	72.458			
00:00:06	11.302	72.458			
00:00:06	13.160	72.458			
00:00:06	13.893	72.458			
00:00:06	14.609	72.458			
00:00:06	15.252	72.458			
00:00:06	15.165	72.458			
00:00:06	15.401	72.458			
00:00:06	15.005	72.458			
00:00:06	14.442	72.458			
00:00:06	14.177	72.458			
00:00:06	12.963	72.458			
00:00:06	12.205	72.458			
00:00:06	11.217	72.458			
00:00:06	10.324	72.458			
00:00:07	9.898	70.459			
00:00:07	8.793	70.459			
00:00:07	8.130	70.459			
00:00:07	7.396	70.459			
00:00:07	6.158	70.464			
00:00:07	5.486	70.464			
00:00:07	4.148	70.464			
00:00:07	3.168	70.464			
00:00:07	2.346	70.464			
00:00:07	1.148	70.464			
00:00:07	0.616	70.464			
00:00:07	-0.664	70.464			
00:00:07	-1.501	70.464			
00:00:07	-1.990	70.464			
00:00:07	-2.897	70.464			
00:00:07	-2.844	70.464			
00:00:07	-3.050	70.464			
00:00:07	-3.252	70.464			
00:00:07	-2.708	70.464			
00:00:07	-2.752	70.464			
00:00:07	-2.501	70.464			
00:00:07	-2.231	70.464			
00:00:07	-1.895	70.464			
00:00:07	-1.133	70.464			
00:00:07	-1.429	70.464			
00:00:07	-1.155	70.464			
00:00:07	-0.969	70.464			
00:00:07	-1.238	70.464			
00:00:07	-0.693	70.464			
00:00:07	-0.885	70.464			
00:00:07	-0.837	70.464			
00:00:07	-0.504	70.464			
00:00:07	-0.856	70.464			
00:00:07	-0.632	70.464			
00:00:07	-1.002	70.464			
00:00:07	-1.375	70.464			
00:00:07	-1.368	70.464			
00:00:07	-1.885	70.464			
00:00:07	-1.961	70.464			
00:00:07	-2.391	70.464			
00:00:07	-2.799	70.464			
00:00:07	-2.605	70.464			
00:00:07	-3.177	70.464			
00:00:07	-3.235	70.464			
00:00:07	-3.492	70.464			
00:00:07	-4.000	70.464			
00:00:07	-3.846	70.464			
00:00:07	-4.389	70.464			
00:00:07	-4.476	70.464			
00:00:07	-4.363	70.464			
00:00:07	-4.475	70.464			
00:00:07	-3.770	70.464			
00:00:07	-3.939	70.464			
00:00:07	-3.849	70.464			
00:00:07	-3.252	70.464			
00:00:07	-3.319	70.464			
00:00:07	-2.849	70.464			
00:00:07	-2.875	70.464			
00:00:07	-2.736	70.464			
00:00:07	-2.154	70.464			
00:00:07	-2.416	70.464			
00:00:07	-2.110	70.464			
00:00:07	-2.122	70.464			
00:00:07	-2.303	70.464			
00:00:07	-1.759	70.464			
00:00:07	-2.367	70.464			
00:00:07	-2.325	70.464			
00:00:07	-2.239	70.464			
00:00:07	-2.567	70.464			
00:00:07	-2.185	70.464			
00:00:07	-2.602	70.464			
00:00:07	-2.694	70.464			
00:00:07	-2.426	70.464			
00:00:07	-2.740	70.464			
00:00:07	-2.330	70.464			
00:00:07	-2.539	70.464			
00:00:07	-2.771	70.464			
00:00:07	-2.653	70.464			
00:00:07	-3.036	70.464			
00:00:07	-2.683	70.464			
00:00:07	-2.707	70.464			
00:00:07	-2.656	70.464			
00:00:07	-2.097	70.464			
00:00:07	-2.085	70.464			
00:00:07	-1.177	70.464			
00:00:07	-0.112	70.464			
00:00:07	1.038	70.464			
00:00:07	3.175	70.464			
00:00:07	4.685	70.464			
00:00:07	6.888	70.464			
00:00:07	8.873	70.464			
00:00:07	10.189	70.464			
00:00:07	11.974	70.464			
00:00:07	12.831	70.464			
00:00:07	13.648	70.464			
00:00:07	14.594	70.464			
00:00:07	14.400	70.464			
00:00:07	14.656	70.464			
00:00:07	14.197	70.464			
00:00:07	13.483	70.464			
00:00:07	13.305	70.464			
00:00:07	12.249	70.464			
00:00:07	11.539	70.464			
00:00:07	10.707	70.464			
00:00:07	9.660	70.464			
00:00:07	9.398	70.464			
00:00:07	8.186	70.464			
00:00:07	7.524	70.464			
00:00:07	6.845	73.143			
00:00:07	5.888	73.143			
00:00:07	5.333	73.143			
00:00:07	3.966	73.143			
00:00:07	3.063	73.148			
00:00:07	2.311	73.148			
00:00:07	1.179	73.148			
00:00:07	0.599	73.148			
00:00:07	-0.256	73.148			
00:00:07	-0.771	73.148			
00:00:07	-1.032	73.148			
00:00:07	-1.881	73.148			
00:00:07	-1.879	73.148			
00:00:07	-2.259	73.148			
00:00:07	-2.369	73.148			
00:00:07	-2.012	73.148			
00:00:07	-2.254	73.148			
00:00:07	-1.715	73.148			
00:00:07	-1.290	73.148			
00:00:07	-1.575	73.148			
00:00:08	-1.211	73.148			
00:00:08	-1.295	73.148			
00:00:08	-0.983	73.148			
00:00:08	-0.715	73.148			
00:00:08	-1.021	73.148			
00:00:08	-0.415	73.148			
00:00:08	-0.491	73.148			
00:00:08	-0.573	73.148			
00:00:08	-0.568	73.148			
00:00:08	-1.066	73.148			
00:00:08	-0.917	73.148			
00:00:08	-1.432	73.148			
00:00:08	-1.881	73.148			
00:00:08	-1.800	73.148			
00:00:08	-2.299	73.148			
00:00:08	-2.264	73.148			
00:00:08	-2.612	73.148			
00:00:08	-2.923	73.148			
00:00:08	-2.882	73.148			
00:00:08	-3.423	73.148			
00:00:08	-3.478	73.148			
00:00:08	-3.623	73.148			
00:00:08	-3.957	73.148			
00:00:08	-3.562	73.148			
00:00:08	-3.833	73.148			
00:00:08	-3.518	73.148			
00:00:08	-3.288	73.148			
00:00:08	-3.596	73.148			
00:00:08	-3.319	73.148			
00:00:08	-3.600	73.148			
00:00:08	-3.523	73.148			
00:00:08	-3.222	73.148			
00:00:08	-3.613	73.148			
00:00:08	-3.060	73.148			
00:00:08	-2.930	73.148			
00:00:08	-2.771	73.148			
00:00:08	-2.196	73.148			
00:00:08	-2.317	73.148			
00:00:08	-1.840	73.148			
00:00:08	-1.695	73.148			
00:00:08	-1.981	73.148			
00:00:08	-1.546	73.148			
00:00:08	-1.817	73.148			
00:00:08	-1.711	73.148			
00:00:08	-1.784	73.148			
00:00:08	-2.229	73.148			
00:00:08	-2.073	73.148			
00:00:08	-2.396	73.148			
00:00:08	-2.338	73.148			
00:00:08	-2.237	73.148			
00:00:08	-2.482	73.148			
00:00:08	-2.396	73.148			
00:00:08	-2.795	73.148			
00:00:08	-3.054	73.148			
00:00:08	-2.736	73.148			
00:00:08	-3.203	73.148			
00:00:08	-2.834	73.148			
00:00:08	-2.651	73.148			
00:00:08	-2.294	73.148			
00:00:08	-1.168	73.148			
00:00:08	-0.556	73.148			
00:00:08	0.873	73.148			
00:00:08	2.479	73.148			
00:00:08	3.961	73.148			
00:00:08	6.203	73.148			
00:00:08	7.681	73.148			
00:00:08	9.579	73.148			
00:00:08	11.497	73.148			
00:00:08	12.709	73.148			
00:00:08	14.386	73.148			
00:00:08	15.055	73.148			
00:00:08	15.328	73.148			
00:00:08	15.714	73.148			
00:00:08	15.284	73.148			
00:00:08	15.351	73.148			
00:00:08	14.648	73.148			
00:00:08	13.810	73.148			
00:00:08	13.528	73.148			
00:00:08	12.401	73.148			
00:00:08	11.679	73.148			
00:00:08	10.561	74.563			
00:00:08	9.389	74.563			
00:00:08	8.914	74.563			
00:00:08	7.692	74.563			
00:00:08	7.043	74.568			
00:00:08	6.543	74.568			
00:00:08	5.616	74.568			
00:00:08	5.353	74.568			
00:00:08	4.171	74.568			
00:00:08	3.319	74.568			
00:00:08	2.613	74.568			
00:00:08	1.367	74.568			
00:00:08	0.803	74.568			
00:00:08	-0.018	74.568			
00:00:08	-0.616	74.568			
00:00:08	-0.854	74.568			
00:00:08	-1.586	74.568			
00:00:08	-1.471	74.568			
00:00:08	-1.635	74.568			
00:00:08	-1.779	74.568			
00:00:08	-1.569	74.568			
00:00:08	-1.913	74.568			
00:00:08	-1.700	74.568			
00:00:08	-1.541	74.568			
00:00:08	-1.619	74.568			
00:00:08	-0.982	74.568			
00:00:08	-1.094	74.568			
00:00:08	-0.884	74.568			
00:00:08	-0.740	74.568			
00:00:08	-1.097	74.568			
00:00:08	-0.832	74.568			
00:00:08	-1.284	74.568			
00:00:08	-1.241	74.568			
00:00:08	-1.130	74.568			
00:00:08	-1.617	74.568			
00:00:08	-1.303	74.568			
00:00:08	-1.505	74.568			
00:00:08	-1.606	74.568			
00:00:08	-1.459	74.568			
00:00:08	-2.044	74.568			
00:00:08	-1.934	74.568			
00:00:08	-2.101	74.568			
00:00:08	-2.622	74.568			
00:00:08	-2.660	74.568			
00:00:08	-3.320	74.568			
00:00:08	-3.326	74.568			
00:00:08	-3.388	74.568			
00:00:08	-3.864	74.568			
00:00:09	-3.504	74.568			
00:00:09	-3.878	74.568			
00:00:09	-3.840	74.568			
00:00:09	-3.708	74.568			
00:00:09	-4.141	74.568			
00:00:09	-3.820	74.568			
00:00:09	-3.919	74.568			
00:00:09	-3.876	74.568			
00:00:09	-3.371	74.568			
00:00:09	-3.638	74.568			
00:00:09	-3.421	74.568			
00:00:09	-3.289	74.568			
00:00:09	-3.158	74.568			
00:00:09	-2.529	74.568			
00:00:09	-2.739	74.568			
00:00:09	-2.367	74.568			
00:00:09	-2.210	74.568			
00:00:09	-2.301	74.568			
00:00:09	-1.825	74.568			
00:00:09	-2.282	74.568			
00:00:09	-2.065	74.568			
00:00:09	-2.063	74.568			
00:00:09	-2.334	74.568			
00:00:09	-1.963	74.568			
00:00:09	-2.482	74.568			
00:00:09	-2.613	74.568			
00:00:09	-2.410	74.568			
00:00:09	-2.728	74.568			
00:00:09	-2.498	74.568			
00:00:09	-2.632	74.568			
00:00:09	-2.697	74.568			
00:00:09	-2.283	74.568			
00:00:09	-2.749	74.568			
00:00:09	-2.509	74.568			
00:00:09	-2.371	74.568			
00:00:09	-2.171	74.568			
00:00:09	-1.106	74.568			
00:00:09	-0.371	74.568			
00:00:09	1.247	74.568			
00:00:09	3.073	74.568			
00:00:09	4.498	74.568			
00:00:09	6.766	74.568			
00:00:09	8.377	74.568			
00:00:09	10.292	74.568			
00:00:09	12.107	74.568			
00:00:09	13.162	74.568			
00:00:09	14.466	74.568			
00:00:09	15.137	74.568			
00:00:09	15.607	74.568			
00:00:09	15.957	74.568			
00:00:09	15.457	74.568			
00:00:09	15.473	74.568			
00:00:09	14.888	74.568			
00:00:09	14.049	74.568			
00:00:09	13.516	74.568			
00:00:09	12.318	74.568			
00:00:09	11.786	74.568			
00:00:09	10.794	74.568			
00:00:09	9.597	74.568			
00:00:09	8.915	74.568			
00:00:09	7.820	73.143			
00:00:09	7.114	73.143			
00:00:09	6.495	73.143			
00:00:09	5.607	73.143			
00:00:09	5.287	73.148			
00:00:09	4.193	73.148			
00:00:09	3.278	73.148			
00:00:09	2.457	73.148			
00:00:09	1.272	73.148			
00:00:09	0.734	73.148			
00:00:09	-0.259	73.148			
00:00:09	-0.944	73.148			
00:00:09	-0.983	73.148			
00:00:09	-1.750	73.148			
00:00:09	-1.602	73.148			
00:00:09	-1.737	73.148			
00:00:09	-1.701	73.148			
00:00:09	-1.222	73.148			
00:00:09	-1.392	73.148			
00:00:09	-1.038	73.148			
00:00:09	-0.873	73.148			
00:00:09	-1.057	73.148			
00:00:09	-0.636	73.148			
00:00:09	-0.956	73.148			
00:00:09	-0.721	73.148			
00:00:09	-0.557	73.148			
00:00:09	-1.066	73.148			
00:00:09	-0.849	73.148			
00:00:09	-1.166	73.148			
00:00:09	-1.368	73.148			
00:00:09	-1.397	73.148			
00:00:09	-1.947	73.148			
00:00:09	-1.782	73.148			
00:00:09	-1.981	73.148			
00:00:09	-2.341	73.148			
00:00:09	-2.365	73.148			
00:00:09	-2.998	73.148			
00:00:09	-2.819	73.148			
00:00:09	-2.912	73.148			
00:00:09	-3.118	73.148			
00:00:09	-2.927	73.148			
00:00:09	-3.347	73.148			
00:00:09	-3.172	73.148			
00:00:09	-3.094	73.148			
00:00:09	-3.631	73.148			
00:00:09	-3.130	73.148			
00:00:09	-3.339	73.148			
00:00:09	-3.448	73.148			
00:00:09	-3.325	73.148			
00:00:09	-3.741	73.148			
00:00:09	-3.413	73.148			
00:00:09	-3.551	73.148			
00:00:09	-3.705	73.148			
00:00:09	-3.338	73.148			
00:00:09	-3.627	73.148			
00:00:09	-3.085	73.148			
00:00:09	-3.126	73.148			
00:00:09	-3.256	73.148			
00:00:09	-2.728	73.148			
00:00:09	-2.993	73.148			
00:00:09	-2.619	73.148			
00:00:09	-2.388	73.148			
00:00:09	-2.562	73.148			
00:00:09	-2.326	73.148			
00:00:09	-2.718	73.148			
00:00:09	-2.515	73.148			
00:00:09	-2.206	73.148			
00:00:09	-2.365	73.148			
00:00:10	-1.944	73.148			
00:00:10	-2.170	73.148			
00:00:10	-2.044	73.148			
00:00:10	-1.696	73.148			
00:00:10	-2.181	73.148			
00:00:10	-1.975	73.148			
00:00:10	-2.331	73.148			
00:00:10	-2.588	73.148			
00:00:10	-2.357	73.148			
00:00:10	-2.643	73.148			
00:00:10	-2.607	73.148			
00:00:10	-2.792	73.148			
00:00:10	-2.830	73.148			
00:00:10	-1.921	73.148			
00:00:10	-1.470	73.148			
00:00:10	-0.047	73.148			
00:00:10	1.560	73.148			
00:00:10	3.086	73.148			
00:00:10	5.502	73.148			
00:00:10	7.261	73.148			
00:00:10	9.320	73.148			
00:00:10	11.431	73.148			
00:00:10	12.825	73.148			
00:00:10	14.498	73.148			
00:00:10	15.117	73.148			
00:00:10	15.529	73.148			
00:00:10	16.141	73.148			
00:00:10	15.888	73.148			
00:00:10	15.984	73.148			
00:00:10	15.325	73.148			
00:00:10	14.403	73.148			
00:00:10	13.938	73.148			
00:00:10	12.533	73.148			
00:00:10	11.927	73.148			
00:00:10	10.893	73.148			
00:00:10	9.895	73.148			
00:00:10	9.553	73.143			
00:00:10	8.475	73.143			
00:00:10	7.578	73.143			
00:00:10	6.702	73.143			
00:00:10	5.542	73.148			
00:00:10	5.172	73.148			
00:00:10	4.056	73.148			
00:00:10	3.105	73.148			
00:00:10	2.528	73.148			
00:00:10	1.472	73.148			
00:00:10	1.148	73.148			
00:00:10	0.446	73.148			
00:00:10	-0.229	73.148			
00:00:10	-0.310	73.148			
00:00:10	-1.133	73.148			
00:00:10	-1.202	73.148			
00:00:10	-1.553	73.148			
00:00:10	-1.823	73.148			
00:00:10	-1.277	73.148			
00:00:10	-1.498	73.148			
00:00:10	-1.187	73.148			
00:00:10	-0.937	73.148			
00:00:10	-1.049	73.148			
00:00:10	-0.422	73.148			
00:00:10	-0.632	73.148			
00:00:10	-0.510	73.148			
00:00:10	-0.382	73.148			
00:00:10	-0.790	73.148			
00:00:10	-0.615	73.148			
00:00:10	-0.951	73.148			
00:00:10	-1.088	73.148			
00:00:10	-0.780	73.148			
00:00:10	-1.173	73.148			
00:00:10	-1.001	73.148			
00:00:10	-1.165	73.148			
00:00:10	-1.426	73.148			
00:00:10	-1.235	73.148			
00:00:10	-1.862	73.148			
00:00:10	-1.908	73.148			
00:00:10	-2.125	73.148			
00:00:10	-2.329	73.148			
00:00:10	-2.107	73.148			
00:00:10	-2.574	73.148			
00:00:10	-2.593	73.148			
00:00:10	-2.684	73.148			
00:00:10	-3.117	73.148			
00:00:10	-2.999	73.148			
00:00:10	-3.510	73.148			
00:00:10	-3.788	73.148			
00:00:10	-3.745	73.148			
00:00:10	-4.112	73.148			
00:00:10	-3.706	73.148			
00:00:10	-3.844	73.148			
00:00:10	-3.893	73.148			
00:00:10	-3.433	73.148			
00:00:10	-3.721	73.148			
00:00:10	-3.345	73.148			
00:00:10	-3.273	73.148			
00:00:10	-3.209	73.148			
00:00:10	-2.491	73.148			
00:00:10	-2.581	73.148			
00:00:10	-2.300	73.148			
00:00:10	-2.040	73.148			
00:00:10	-2.232	73.148			
00:00:10	-1.659	73.148			
00:00:10	-1.904	73.148			
00:00:10	-1.835	73.148			
00:00:10	-1.636	73.148			
00:00:10	-1.836	73.148			
00:00:10	-1.633	73.148			
00:00:10	-1.856	73.148			
00:00:10	-1.868	73.148			
00:00:10	-1.419	73.148			
00:00:10	-1.849	73.148			
00:00:10	-1.707	73.148			
00:00:10	-2.117	73.148			
00:00:10	-2.419	73.148			
00:00:10	-2.088	73.148			
00:00:10	-2.470	73.148			
00:00:10	-2.295	73.148			
00:00:10	-2.173	73.148			
00:00:10	-2.132	73.148			
00:00:10	-1.271	73.148			
00:00:10	-0.877	73.148			
00:00:10	0.303	73.148			
00:00:10	1.720	73.148			
00:00:10	2.943	73.148			
00:00:10	5.237	73.148			
00:00:10	7.130	73.148			
00:00:10	9.157	73.148			
00:00:10	11.186	73.148			
00:00:10	12.476	73.148			
00:00:11	14.009	73.148			
00:00:11	14.713	73.148			
00:00:11	15.319	73.148			
00:00:11	15.962	73.148			
00:00:11	15.545	73.148			
00:00:11	15.464	73.148			
00:00:11	14.949	73.148			
00:00:11	14.149	73.148			
00:00:11	13.641	73.148			
00:00:11	12.343	73.148			
00:00:11	11.694	73.148			
00:00:11	10.852	73.148			
00:00:11	9.678	73.143			
00:00:11	9.099	73.143			
00:00:11	7.796	73.143			
00:00:11	6.920	73.143			
00:00:11	6.144	73.148			
00:00:11	4.825	73.148			
00:00:11	4.130	73.148			
00:00:11	2.736	73.148			
00:00:11	1.828	73.148			
00:00:11	1.265	73.148			
00:00:11	0.113	73.148			
00:00:11	-0.370	73.148			
00:00:11	-1.029	73.148			
00:00:11	-1.345	73.148			
00:00:11	-1.322	73.148			
00:00:11	-1.958	73.148			
00:00:11	-1.697	73.148			
00:00:11	-1.670	73.148			
00:00:11	-1.619	73.148			
00:00:11	-1.124	73.148			
00:00:11	-1.284	73.148			
00:00:11	-0.753	73.148			
00:00:11	-0.371	73.148			
00:00:11	-0.426	73.148			
00:00:11	-0.079	73.148			
00:00:11	-0.356	73.148			
00:00:11	-0.353	73.148			
00:00:11	-0.316	73.148			
00:00:11	-0.561	73.148			
00:00:11	-0.254	73.148			
00:00:11	-0.441	73.148			
00:00:11	-0.558	73.148			
00:00:11	-0.364	73.148			
00:00:11	-0.986	73.148			
00:00:11	-0.916	73.148			
00:00:11	-1.166	73.148			
00:00:11	-1.416	73.148			
00:00:11	-1.141	73.148			
00:00:11	-1.686	73.148			
00:00:11	-1.702	73.148			
00:00:11	-2.009	73.148			
00:00:11	-2.644	73.148			
00:00:11	-2.619	73.148			
00:00:11	-3.163	73.148			
00:00:11	-3.134	73.148			
00:00:11	-3.094	73.148			
00:00:11	-3.528	73.148			
00:00:11	-3.136	73.148			
00:00:11	-3.661	73.148			
00:00:11	-3.785	73.148			
00:00:11	-3.489	73.148			
00:00:11	-3.655	73.148			
00:00:11	-3.433	73.148			
00:00:11	-3.515	73.148			
00:00:11	-3.538	73.148			
00:00:11	-3.114	73.148			
00:00:11	-3.284	73.148			
00:00:11	-2.838	73.148			
00:00:11	-2.640	73.148			
00:00:11	-2.738	73.148			
00:00:11	-2.260	73.148			
00:00:11	-2.420	73.148			
00:00:11	-1.983	73.148			
00:00:11	-1.642	73.148			
00:00:11	-1.888	73.148			
00:00:11	-1.569	73.148			
00:00:11	-1.937	73.148			
00:00:11	-1.916	73.148			
00:00:11	-1.853	73.148			
00:00:11	-2.289	73.148			
00:00:11	-1.965	73.148			
00:00:11	-2.156	73.148			
00:00:11	-2.145	73.148			
00:00:11	-1.872	73.148			
00:00:11	-2.320	73.148			
00:00:11	-2.126	73.148			
00:00:11	-2.310	73.148			
00:00:11	-2.580	73.148			
00:00:11	-2.238	73.148			
00:00:11	-2.497	73.148			
00:00:11	-2.005	73.148			
00:00:11	-1.537	73.148			
00:00:11	-1.132	73.148			
00:00:11	0.478	73.148			
00:00:11	1.710	73.148			
00:00:11	3.875	73.148			
00:00:11	5.993	73.148			
00:00:11	7.781	73.148			
00:00:11	10.148	73.148			
00:00:11	11.911	73.148			
00:00:11	13.632	73.148			
00:00:11	15.069	73.148			
00:00:11	15.624	73.148			
00:00:11	16.594	73.148			
00:00:11	16.567	73.148			
00:00:11	16.491	73.148			
00:00:11	16.618	73.148			
00:00:11	15.845	73.148			
00:00:11	15.576	73.148			
00:00:11	14.723	73.148			
00:00:11	13.701	73.148			
00:00:11	13.080	73.148			
00:00:11	11.836	73.148			
00:00:11	11.200	73.148			
00:00:11	10.405	73.846			
00:00:11	9.335	73.846			
00:00:11	8.752	73.846			
00:00:11	7.437	73.846			
00:00:11	6.557	73.851			
00:00:11	5.879	73.851			
00:00:11	4.804	73.851			
00:00:11	4.249	73.851			
00:00:11	3.036	73.851			
00:00:11	2.207	73.851			
00:00:11	1.763	73.851			
00:00:11	0.863	73.851			
00:00:12	0.357	73.851			
00:00:12	-0.300	73.851			
00:00:12	-0.817	73.851			
00:00:12	-1.018	73.851			
00:00:12	-1.717	73.851			
00:00:12	-1.461	73.851			
00:00:12	-1.323	73.851			
00:00:12	-1.260	73.851			
00:00:12	-0.789	73.851			
00:00:12	-0.850	73.851			
00:00:12	-0.559	73.851			
00:00:12	-0.349	73.851			
00:00:12	-0.650	73.851			
00:00:12	-0.173	73.851			
00:00:12	-0.184	73.851			
00:00:12	-0.075	73.851			
00:00:12	0.080	73.851			
00:00:12	-0.400	73.851			
00:00:12	-0.053	73.851			
00:00:12	-0.294	73.851			
00:00:12	-0.700	73.851			
00:00:12	-0.713	73.851			
00:00:12	-1.293	73.851			
00:00:12	-1.304	73.851			
00:00:12	-1.549	73.851			
00:00:12	-1.744	73.851			
00:00:12	-1.529	73.851			
00:00:12	-1.961	73.851			
00:00:12	-1.958	73.851			
00:00:12	-2.159	73.851			
00:00:12	-2.538	73.851			
00:00:12	-2.333	73.851			
00:00:12	-2.720	73.851			
00:00:12	-2.792	73.851			
00:00:12	-2.707	73.851			
00:00:12	-3.047	73.851			
00:00:12	-2.954	73.851			
00:00:12	-3.352	73.851			
00:00:12	-3.431	73.851			
00:00:12	-3.201	73.851			
00:00:12	-3.575	73.851			
00:00:12	-3.290	73.851			
00:00:12	-3.480	73.851			
00:00:12	-3.348	73.851			
00:00:12	-2.794	73.851			
00:00:12	-3.023	73.851			
00:00:12	-2.870	73.851			
00:00:12	-2.702	73.851			
00:00:12	-2.768	73.851			
00:00:12	-2.190	73.851			
00:00:12	-2.337	73.851			
00:00:12	-1.843	73.851			
00:00:12	-1.614	73.851			
00:00:12	-1.767	73.851			
00:00:12	-1.412	73.851			
00:00:12	-1.669	73.851			
00:00:12	-1.679	73.851			
00:00:12	-1.458	73.851			
00:00:12	-1.895	73.851			
00:00:12	-1.621	73.851			
00:00:12	-1.815	73.851			
00:00:12	-1.761	73.851			
00:00:12	-1.538	73.851			
00:00:12	-2.193	73.851			
00:00:12	-2.069	73.851			
00:00:12	-2.333	73.851			
00:00:12	-2.655	73.851			
00:00:12	-2.281	73.851			
00:00:12	-2.665	73.851			
00:00:12	-2.163	73.851			
00:00:12	-1.573	73.851			
00:00:12	-0.951	73.851			
00:00:12	0.567	73.851			
00:00:12	1.665	73.851			
00:00:12	3.506	73.851			
00:00:12	5.490	73.851			
00:00:12	7.159	73.851			
00:00:12	9.601	73.851			
00:00:12	11.211	73.851			
00:00:12	13.056	73.851			
00:00:12	14.768	73.851			
00:00:12	15.546	73.851			
00:00:12	16.931	73.851			
00:00:12	17.334	73.851			
00:00:12	17.437	73.851			
00:00:12	17.695	73.851			
00:00:12	17.018	73.851			
00:00:12	16.758	73.851			
00:00:12	16.022	73.851			
00:00:12	15.101	73.851			
00:00:12	14.511	73.851			
00:00:12	13.135	73.851			
00:00:12	12.291	73.143			
00:00:12	11.665	73.143			
00:00:12	10.384	73.143			
00:00:12	9.724	73.143			
00:00:12	8.379	73.148			
00:00:12	7.522	73.148			
00:00:12	6.849	73.148			
00:00:12	5.541	73.148			
00:00:12	4.745	73.148			
00:00:12	3.537	73.148			
00:00:12	2.515	73.148			
00:00:12	1.820	73.148			
00:00:12	0.600	73.148			
00:00:12	0.255	73.148			
00:00:12	-0.305	73.148			
00:00:12	-0.826	73.148			
00:00:12	-0.795	73.148			
00:00:12	-1.202	73.148			
00:00:12	-1.077	73.148			
00:00:12	-0.998	73.148			
00:00:12	-1.027	73.148			
00:00:12	-0.365	73.148			
00:00:12	-0.513	73.148			
00:00:12	-0.133	73.148			
00:00:12	0.024	73.148			
00:00:12	-0.229	73.148			
00:00:12	0.139	73.148			
00:00:12	-0.104	73.148			
00:00:12	-0.180	73.148			
00:00:12	0.044	73.148			
00:00:12	-0.394	73.148			
00:00:12	-0.070	73.148			
00:00:12	-0.454	73.148			
00:00:12	-0.755	73.148			
00:00:12	-0.759	73.148			
00:00:12	-1.124	73.148			
00:00:13	-0.975	73.148			
00:00:13	-1.216	73.148			
00:00:13	-1.566	73.148			
00:00:13	-1.360	73.148			
00:00:13	-2.031	73.148			
00:00:13	-2.100	73.148			
00:00:13	-2.312	73.148			
00:00:13	-2.778	73.148			
00:00:13	-2.513	73.148			
00:00:13	-2.839	73.148			
00:00:13	-2.895	73.148			
00:00:13	-2.835	73.148			
00:00:13	-3.166	73.148			
00:00:13	-2.866	73.148			
00:00:13	-3.212	73.148			
00:00:13	-3.269	73.148			
00:00:13	-2.971	73.148			
00:00:13	-3.312	73.148			
00:00:13	-3.131	73.148			
00:00:13	-3.191	73.148			
00:00:13	-2.973	73.148			
00:00:13	-2.357	73.148			
00:00:13	-2.540	73.148			
00:00:13	-2.212	73.148			
00:00:13	-2.178	73.148			
00:00:13	-2.364	73.148			
00:00:13	-2.185	73.148			
00:00:13	-2.584	73.148			
00:00:13	-2.230	73.148			
00:00:13	-1.895	73.148			
00:00:13	-2.015	73.148			
00:00:13	-1.456	73.148			
00:00:13	-1.445	73.148			
00:00:13	-1.089	73.148			
00:00:13	-0.929	73.148			
00:00:13	-1.359	73.148			
00:00:13	-1.107	73.148			
00:00:13	-1.301	73.148			
00:00:13	-1.335	73.148			
00:00:13	-1.350	73.148			
00:00:13	-1.888	73.148			
00:00:13	-1.689	73.148			
00:00:13	-1.966	73.148			
00:00:13	-2.325	73.148			
00:00:13	-2.173	73.148			
00:00:13	-2.678	73.148			
00:00:13	-2.452	73.148			
00:00:13	-2.353	73.148			
00:00:13	-2.166	73.148			
00:00:13	-1.095	73.148			
00:00:13	-0.486	73.148			
00:00:13	0.795	73.148			
00:00:13	2.352	73.148			
00:00:13	3.806	73.148			
00:00:13	6.212	73.148			
00:00:13	7.935	73.148			
00:00:13	9.937	73.148			
00:00:13	11.935	73.148			
00:00:13	13.295	73.148			
00:00:13	14.812	73.148			
00:00:13	15.607	73.148			
00:00:13	16.239	73.148			
00:00:13	17.084	73.148			
00:00:13	16.855	73.148			
00:00:13	17.039	73.148			
00:00:13	16.571	73.148			
00:00:13	15.814	73.148			
00:00:13	15.457	73.148			
00:00:13	14.250	73.148			
00:00:13	13.687	73.148			
00:00:13	13.083	73.148			
00:00:13	12.079	73.148			
00:00:13	11.481	71.776			
00:00:13	10.296	71.776			
00:00:13	9.396	71.776			
00:00:13	8.536	71.776			
00:00:13	7.206	71.781			
00:00:13	6.356	71.781			
00:00:13	5.044	71.781			
00:00:13	3.968	71.781			
00:00:13	3.188	71.781			
00:00:13	1.810	71.781			
00:00:13	1.189	71.781			
00:00:13	0.300	71.781			
00:00:13	-0.284	71.781			
00:00:13	-0.331	71.781			
00:00:13	-0.803	71.781			
00:00:13	-0.748	71.781			
00:00:13	-0.795	71.781			
00:00:13	-1.032	71.781			
00:00:13	-0.571	71.781			
00:00:13	-0.634	71.781			
00:00:13	-0.214	71.781			
00:00:13	0.066	71.781			
00:00:13	-0.035	71.781			
00:00:13	0.451	71.781			
00:00:13	0.358	71.781			
00:00:13	0.271	71.781			
00:00:13	0.409	71.781			
00:00:13	0.030	71.781			
00:00:13	0.269	71.781			
00:00:13	-0.120	71.781			
00:00:13	-0.373	71.781			
00:00:13	-0.270	71.781			
00:00:13	-0.708	71.781			
00:00:13	-0.577	71.781			
00:00:13	-0.798	71.781			
00:00:13	-1.156	71.781			
00:00:13	-0.944	71.781			
00:00:13	-1.523	71.781			
00:00:13	-1.541	71.781			
00:00:13	-1.800	71.781			
00:00:13	-2.210	71.781			
00:00:13	-2.111	71.781			
00:00:13	-2.751	71.781			
00:00:13	-2.810	71.781			
00:00:13	-2.708	71.781			
00:00:13	-2.929	71.781			
00:00:13	-2.585	71.781			
00:00:13	-2.777	71.781			
00:00:13	-2.673	71.781			
00:00:13	-2.338	71.781			
00:00:13	-2.682	71.781			
00:00:13	-2.434	71.781			
00:00:13	-2.613	71.781			
00:00:13	-2.719	71.781			
00:00:13	-2.359	71.781			
00:00:13	-2.603	71.781			
00:00:14	-2.390	71.781			
00:00:14	-2.478	71.781			
00:00:14	-2.590	71.781			
00:00:14	-2.116	71.781			
00:00:14	-2.238	71.781			
00:00:14	-1.830	71.781			
00:00:14	-1.632	71.781			
00:00:14	-1.689	71.781			
00:00:14	-1.027	71.781			
00:00:14	-1.023	71.781			
00:00:14	-1.003	71.781			
00:00:14	-0.855	71.781			
00:00:14	-1.309	71.781			
00:00:14	-0.921	71.781			
00:00:14	-1.023	71.781			
00:00:14	-1.040	71.781			
00:00:14	-0.843	71.781			
00:00:14	-1.251	71.781			
00:00:14	-1.022	71.781			
00:00:14	-1.102	71.781			
00:00:14	-1.493	71.781			
00:00:14	-1.376	71.781			
00:00:14	-2.028	71.781			
00:00:14	-2.114	71.781			
00:00:14	-2.068	71.781			
00:00:14	-2.184	71.781			
00:00:14	-1.713	71.781			
00:00:14	-1.668	71.781			
00:00:14	-0.977	71.781			
00:00:14	0.129	71.781			
00:00:14	1.056	71.781			
00:00:14	3.062	71.781			
00:00:14	4.805	71.781			
00:00:14	6.723	71.781			
00:00:14	8.953	71.781			
00:00:14	10.618	71.781			
00:00:14	12.499	71.781			
00:00:14	13.904	71.781			
00:00:14	14.878	71.781			
00:00:14	16.106	71.781			
00:00:14	16.250	71.781			
00:00:14	16.649	71.781			
00:00:14	16.524	71.781			
00:00:14	16.032	71.781			
00:00:14	16.051	71.781			
00:00:14	15.056	71.781			
00:00:14	14.495	71.781			
00:00:14	13.840	71.781			
00:00:14	12.571	71.781			
00:00:14	11.987	71.781			
00:00:14	10.516	71.781			
00:00:14	9.656	71.781			
00:00:14	8.980	72.453			
00:00:14	7.881	72.453			
00:00:14	7.344	72.453			
00:00:14	6.272	72.453			
00:00:14	5.299	72.458			
00:00:14	4.598	72.458			
00:00:14	3.412	72.458			
00:00:14	2.743	72.458			
00:00:14	1.720	72.458			
00:00:14	0.655	72.458			
00:00:14	0.480	72.458			
00:00:14	-0.229	72.458			
00:00:14	-0.256	72.458			
00:00:14	-0.291	72.458			
00:00:14	-0.730	72.458			
00:00:14	-0.302	72.458			
00:00:14	-0.453	72.458			
00:00:14	-0.147	72.458			
00:00:14	0.184	72.458			
00:00:14	0.034	72.458			
00:00:14	0.583	72.458			
00:00:14	0.402	72.458			
00:00:14	0.713	72.458			
00:00:14	0.836	72.458			
00:00:14	0.292	72.458			
00:00:14	0.463	72.458			
00:00:14	0.158	72.458			
00:00:14	-0.010	72.458			
00:00:14	0.103	72.458			
00:00:14	-0.440	72.458			
00:00:14	-0.452	72.458			
00:00:14	-0.632	72.458			
00:00:14	-1.034	72.458			
00:00:14	-1.115	72.458			
00:00:14	-1.548	72.458			
00:00:14	-1.466	72.458			
00:00:14	-1.626	72.458			
00:00:14	-2.174	72.458			
00:00:14	-1.751	72.458			
00:00:14	-2.062	72.458			
00:00:14	-2.142	72.458			
00:00:14	-2.160	72.458			
00:00:14	-2.407	72.458			
00:00:14	-2.152	72.458			
00:00:14	-2.397	72.458			
00:00:14	-2.304	72.458			
00:00:14	-2.106	72.458			
00:00:14	-2.527	72.458			
00:00:14	-2.409	72.458			
00:00:14	-2.412	72.458			
00:00:14	-2.533	72.458			
00:00:14	-2.244	72.458			
00:00:14	-2.743	72.458			
00:00:14	-2.526	72.458			
00:00:14	-2.563	72.458			
00:00:14	-2.593	72.458			
00:00:14	-2.124	72.458			
00:00:14	-2.253	72.458			
00:00:14	-2.046	72.458			
00:00:14	-1.809	72.458			
00:00:14	-1.933	72.458			
00:00:14	-1.146	72.458			
00:00:14	-1.246	72.458			
00:00:14	-1.254	72.458			
00:00:14	-0.909	72.458			
00:00:14	-1.005	72.458			
00:00:14	-0.677	72.458			
00:00:14	-0.826	72.458			
00:00:14	-0.966	72.458			
00:00:14	-0.868	72.458			
00:00:14	-1.343	72.458			
00:00:14	-1.036	72.458			
00:00:14	-1.116	72.458			
00:00:14	-1.423	72.458			
00:00:14	-1.297	72.458			
00:00:14	-1.904	72.458			
00:00:15	-1.945	72.458			
00:00:15	-1.971	72.458			
00:00:15	-2.282	72.458			
00:00:15	-1.556	72.458			
00:00:15	-1.427	72.458			
00:00:15	-0.306	72.458			
00:00:15	1.011	72.458			
00:00:15	2.130	72.458			
00:00:15	4.021	72.458			
00:00:15	5.623	72.458			
00:00:15	7.666	72.458			
00:00:15	10.138	72.458			
00:00:15	11.888	72.458			
00:00:15	13.934	72.458			
00:00:15	15.227	72.458			
00:00:15	16.146	72.458			
00:00:15	17.350	72.458			
00:00:15	17.573	72.458			
00:00:15	17.885	72.458			
00:00:15	17.655	72.458			
00:00:15	16.857	72.458			
00:00:15	16.674	72.458			
00:00:15	15.677	72.458			
00:00:15	15.097	72.458			
00:00:15	14.366	72.458			
00:00:15	13.157	72.458			
00:00:15	12.676	72.458			
00:00:15	11.458	72.458			
00:00:15	10.589	73.143			
00:00:15	10.033	73.143			
00:00:15	8.834	73.143			
00:00:15	8.135	73.143			
00:00:15	7.058	73.148			
00:00:15	6.029	73.148			
00:00:15	5.321	73.148			
00:00:15	3.946	73.148			
00:00:15	3.128	73.148			
00:00:15	1.972	73.148			
00:00:15	0.968	73.148			
00:00:15	0.780	73.148			
00:00:15	0.095	73.148			
00:00:15	0.009	73.148			
00:00:15	-0.015	73.148			
00:00:15	-0.426	73.148			
00:00:15	0.015	73.148			
00:00:15	-0.113	73.148			
00:00:15	0.432	73.148			
00:00:15	0.645	73.148			
00:00:15	0.447	73.148			
00:00:15	0.945	73.148			
00:00:15	0.794	73.148			
00:00:15	0.886	73.148			
00:00:15	1.118	73.148			
00:00:15	0.440	73.148			
00:00:15	0.715	73.148			
00:00:15	0.418	73.148			
00:00:15	0.238	73.148			
00:00:15	0.255	73.148			
00:00:15	-0.240	73.148			
00:00:15	-0.077	73.148			
00:00:15	-0.428	73.148			
00:00:15	-1.007	73.148			
00:00:15	-0.917	73.148			
00:00:15	-1.411	73.148			
00:00:15	-1.439	73.148			
00:00:15	-1.534	73.148			
00:00:15	-1.891	73.148			
00:00:15	-1.514	73.148			
00:00:15	-1.807	73.148			
00:00:15	-1.777	73.148			
00:00:15	-1.805	73.148			
00:00:15	-2.267	73.148			
00:00:15	-1.910	73.148			
00:00:15	-1.931	73.148			
00:00:15	-2.001	73.148			
00:00:15	-1.809	73.148			
00:00:15	-2.271	73.148			
00:00:15	-2.053	73.148			
00:00:15	-2.119	73.148			
00:00:15	-2.257	73.148			
00:00:15	-1.961	73.148			
00:00:15	-2.247	73.148			
00:00:15	-1.817	73.148			
00:00:15	-1.714	73.148			
00:00:15	-2.024	73.148			
00:00:15	-1.498	73.148			
00:00:15	-1.684	73.148			
00:00:15	-1.292	73.148			
00:00:15	-0.940	73.148			
00:00:15	-0.962	73.148			
00:00:15	-0.468	73.148			
00:00:15	-0.683	73.148			
00:00:15	-0.716	73.148			
00:00:15	-0.614	73.148			
00:00:15	-1.134	73.148			
00:00:15	-0.862	73.148			
00:00:15	-0.993	73.148			
00:00:15	-1.032	73.148			
00:00:15	-0.804	73.148			
00:00:15	-1.224	73.148			
00:00:15	-1.016	73.148			
00:00:15	-1.032	73.148			
00:00:15	-1.250	73.148			
00:00:15	-0.956	73.148			
00:00:15	-1.409	73.148			
00:00:15	-1.379	73.148			
00:00:15	-1.451	73.148			
00:00:15	-1.731	73.148			
00:00:15	-1.324	73.148			
00:00:15	-1.427	73.148			
00:00:15	-1.114	73.148			
00:00:15	-0.264	73.148			
00:00:15	0.530	73.148			
00:00:15	2.317	73.148			
00:00:15	3.733	73.148			
00:00:15	5.476	73.148			
00:00:15	7.882	73.148			
00:00:15	9.610	73.148			
00:00:15	11.942	73.148			
00:00:15	13.641	73.148			
00:00:15	15.007	73.148			
00:00:15	16.559	73.148			
00:00:15	17.044	73.148			
00:00:15	18.000	73.148			
00:00:15	18.457	73.148			
00:00:15	18.139	73.148			
00:00:15	18.276	73.148			
00:00:15	17.447	73.148			
00:00:16	17.131	72.458			
00:00:16	16.569	72.458			
00:00:16	15.339	72.458			
00:00:16	14.816	72.458			
00:00:16	13.779	72.458			
00:00:16	12.879	72.458			
00:00:16	12.131	72.458			
00:00:16	10.585	72.458			
00:00:16	10.111	72.458			
00:00:16	9.027	72.458			
00:00:16	8.000	72.458			
00:00:16	7.398	72.458			
00:00:16	6.116	86.292			
00:00:16	5.373	86.292			
00:00:16	4.255	86.292			
00:00:16	3.197	86.292			
00:00:16	2.667	86.297			
00:00:16	1.606	86.297			
00:00:16	1.235	86.297			
00:00:16	0.682	86.297			
00:00:16	0.121	86.297			
00:00:16	0.504	86.297			
00:00:16	0.258	86.297			
00:00:16	0.125	86.297			
00:00:16	0.322	86.297			
00:00:16	0.189	86.297			
00:00:16	0.714	86.297			
00:00:16	0.687	86.297			
00:00:16	0.854	86.297			
00:00:16	1.203	86.297			
00:00:16	0.847	86.297			
00:00:16	1.143	86.297			
00:00:16	0.890	86.297			
00:00:16	0.637	86.297			
00:00:16	0.900	86.297			
00:00:16	0.256	86.297			
00:00:16	0.036	86.297			
00:00:16	-0.212	86.297			
00:00:16	-0.639	86.297			
00:00:16	-0.261	86.297			
00:00:16	-0.661	86.297			
00:00:16	-0.701	86.297			
00:00:16	-0.836	86.297			
00:00:16	-1.326	86.297			
00:00:16	-1.065	86.297			
00:00:16	-1.414	86.297			
00:00:16	-1.567	86.297			
00:00:16	-1.490	86.297			
00:00:16	-1.796	86.297			
00:00:16	-1.493	86.297			
00:00:16	-1.817	86.297			
00:00:16	-2.035	86.297			
00:00:16	-1.850	86.297			
00:00:16	-2.221	86.297			
00:00:16	-2.007	86.297			
00:00:16	-2.093	86.297			
00:00:16	-2.311	86.297			
00:00:16	-1.831	86.297			
00:00:16	-2.070	86.297			
00:00:16	-1.882	86.297			
00:00:16	-1.738	86.297			
00:00:16	-1.924	86.297			
00:00:16	-1.432	86.297			
00:00:16	-1.720	86.297			
00:00:16	-1.513	86.297			
00:00:16	-1.106	86.297			
00:00:16	-1.234	86.297			
00:00:16	-0.657	86.297			
00:00:16	-0.838	86.297			
00:00:16	-0.914	86.297			
00:00:16	-0.614	86.297			
00:00:16	-0.853	86.297			
00:00:16	-0.348	86.297			
00:00:16	-0.538	86.297			
00:00:16	-0.674	86.297			
00:00:16	-0.353	86.297			
00:00:16	-0.904	86.297			
00:00:16	-0.611	86.297			
00:00:16	-0.727	86.297			
00:00:16	-1.165	86.297			
00:00:16	-0.991	86.297			
00:00:16	-1.478	86.297			
00:00:16	-1.356	86.297			
00:00:16	-1.258	86.297			
00:00:16	-1.710	86.297			
00:00:16	-1.374	86.297			
00:00:16	-1.688	86.297			
00:00:16	-1.529	86.297			
00:00:16	-1.423	86.297			
00:00:16	-1.724	86.297			
00:00:16	-1.007	86.297			
00:00:16	-0.279	86.297			
00:00:16	0.789	86.297			
00:00:16	2.416	86.297			
00:00:16	3.604	86.297			
00:00:16	6.019	86.297			
00:00:16	8.323	86.297			
00:00:16	10.318	86.297			
00:00:16	12.586	86.297			
00:00:16	13.905	86.297			
00:00:16	15.605	86.297			
00:00:16	16.517	86.297			
00:00:16	16.880	86.297			
00:00:16	17.527	86.297			
00:00:16	17.167	86.297			
00:00:16	16.979	86.297			
00:00:16	16.806	86.297			
00:00:16	16.145	86.297			
00:00:16	16.085	86.297			
00:00:16	15.189	86.297			
00:00:16	14.259	86.297			
00:00:16	13.627	86.297			
00:00:16	12.546	86.297			
00:00:16	12.128	86.297			
00:00:16	11.124	86.297			
00:00:16	10.200	86.297			
00:00:16	9.513	75.294			
00:00:16	8.057	75.294			
00:00:16	7.418	75.294			
00:00:16	6.524	75.294			
00:00:16	5.207	75.299			
00:00:16	4.376	75.299			
00:00:16	3.152	75.299			
00:00:16	2.473	75.299			
00:00:16	1.784	75.299			
00:00:16	0.877	75.299			
00:00:16	0.613	75.299			
00:00:16	0.052	75.299			
00:00:17	0.000	75.299			
00:00:17	0.119	75.299			
00:00:17	-0.342	75.299			
00:00:17	0.093	75.299			
00:00:17	0.121	75.299			
00:00:17	0.246	75.299			
00:00:17	0.820	75.299			
00:00:17	0.596	75.299			
00:00:17	1.047	75.299			
00:00:17	1.129	75.299			
00:00:17	1.113	75.299			
00:00:17	1.518	75.299			
00:00:17	1.120	75.299			
00:00:17	1.155	75.299			
00:00:17	0.933	75.299			
00:00:17	0.530	75.299			
00:00:17	0.719	75.299			
00:00:17	0.332	75.299			
00:00:17	0.123	75.299			
00:00:17	-0.249	75.299			
00:00:17	-0.820	75.299			
00:00:17	-0.668	75.299			
00:00:17	-1.176	75.299			
00:00:17	-1.387	75.299			
00:00:17	-1.402	75.299			
00:00:17	-1.888	75.299			
00:00:17	-1.495	75.299			
00:00:17	-1.653	75.299			
00:00:17	-1.757	75.299			
00:00:17	-1.310	75.299			
00:00:17	-1.604	75.299			
00:00:17	-1.284	75.299			
00:00:17	-1.440	75.299			
00:00:17	-1.977	75.299			
00:00:17	-1.645	75.299			
00:00:17	-2.015	75.299			
00:00:17	-1.793	75.299			
00:00:17	-1.709	75.299			
00:00:17	-1.905	75.299			
00:00:17	-1.560	75.299			
00:00:17	-1.862	75.299			
00:00:17	-1.697	75.299			
00:00:17	-1.320	75.299			
00:00:17	-1.588	75.299			
00:00:17	-1.101	75.299			
00:00:17	-1.356	75.299			
00:00:17	-1.160	75.299			
00:00:17	-0.823	75.299			
00:00:17	-1.210	75.299			
00:00:17	-0.837	75.299			
00:00:17	-1.026	75.299			
00:00:17	-1.199	75.299			
00:00:17	-0.721	75.299			
00:00:17	-0.919	75.299			
00:00:17	-0.697	75.299			
00:00:17	-0.817	75.299			
00:00:17	-1.048	75.299			
00:00:17	-0.495	75.299			
00:00:17	-0.604	75.299			
00:00:17	-0.436	75.299			
00:00:17	-0.355	75.299			
00:00:17	-0.715	75.299			
00:00:17	-0.458	75.299			
00:00:17	-0.719	75.299			
00:00:17	-0.787	75.299			
00:00:17	-0.754	75.299			
00:00:17	-1.349	75.299			
00:00:17	-0.992	75.299			
00:00:17	-1.048	75.299			
00:00:17	-0.811	75.299			
00:00:17	0.010	75.299			
00:00:17	0.394	75.299			
00:00:17	1.790	75.299			
00:00:17	3.206	75.299			
00:00:17	4.736	75.299			
00:00:17	7.259	75.299			
00:00:17	8.847	75.299			
00:00:17	10.869	75.299			
00:00:17	12.513	75.299			
00:00:17	13.770	75.299			
00:00:17	15.425	75.299			
00:00:17	16.096	75.299			
00:00:17	17.024	75.299			
00:00:17	17.605	75.299			
00:00:17	17.335	75.299			
00:00:17	17.460	75.299			
00:00:17	16.750	75.299			
00:00:17	16.117	75.299			
00:00:17	15.546	75.299			
00:00:17	14.348	75.299			
00:00:17	13.763	75.299			
00:00:17	12.719	75.299			
00:00:17	11.709	71.776			
00:00:17	11.052	71.776			
00:00:17	9.852	71.776			
00:00:17	9.281	71.776			
00:00:17	8.445	71.781			
00:00:17	7.172	71.781			
00:00:17	6.662	71.781			
00:00:17	5.411	71.781			
00:00:17	4.805	71.781			
00:00:17	3.899	71.781			
00:00:17	2.576	71.781			
00:00:17	2.101	71.781			
00:00:17	1.155	71.781			
00:00:17	0.497	71.781			
00:00:17	0.205	71.781			
00:00:17	-0.355	71.781			
00:00:17	-0.128	71.781			
00:00:17	-0.177	71.781			
00:00:17	-0.207	71.781			
00:00:17	0.201	71.781			
00:00:17	0.204	71.781			
00:00:17	0.814	71.781			
00:00:17	1.226	71.781			
00:00:17	1.407	71.781			
00:00:17	1.942	71.781			
00:00:17	1.670	71.781			
00:00:17	1.913	71.781			
00:00:17	1.873	71.781			
00:00:17	1.487	71.781			
00:00:17	1.608	71.781			
00:00:17	0.983	71.781			
00:00:17	0.947	71.781			
00:00:17	0.940	71.781			
00:00:17	0.439	71.781			
00:00:17	0.447	71.781			
00:00:17	0.004	71.781			
00:00:18	-0.281	71.781			
00:00:18	-0.235	71.781			
00:00:18	-0.811	71.781			
00:00:18	-0.703	71.781			
00:00:18	-1.140	71.781			
00:00:18	-1.581	71.781			
00:00:18	-1.412	71.781			
00:00:18	-1.851	71.781			
00:00:18	-1.638	71.781			
00:00:18	-1.682	71.781			
00:00:18	-1.945	71.781			
00:00:18	-1.375	71.781			
00:00:18	-1.569	71.781			
00:00:18	-1.192	71.781			
00:00:18	-1.006	71.781			
00:00:18	-1.343	71.781			
00:00:18	-0.893	71.781			
00:00:18	-1.152	71.781			
00:00:18	-1.121	71.781			
00:00:18	-1.009	71.781			
00:00:18	-1.393	71.781			
00:00:18	-1.046	71.781			
00:00:18	-1.141	71.781			
00:00:18	-1.042	71.781			
00:00:18	-0.693	71.781			
00:00:18	-0.914	71.781			
00:00:18	-0.293	71.781			
00:00:18	-0.261	71.781			
00:00:18	-0.274	71.781			
00:00:18	0.293	71.781			
00:00:18	-0.046	71.781			
00:00:18	0.013	71.781			
00:00:18	-0.005	71.781			
00:00:18	-0.392	71.781			
00:00:18	-0.018	71.781			
00:00:18	-0.413	71.781			
00:00:18	-0.430	71.781			
00:00:18	-0.426	71.781			
00:00:18	-0.881	71.781			
00:00:18	-0.500	71.781			
00:00:18	-0.723	71.781			
00:00:18	-0.597	71.781			
00:00:18	-0.165	71.781			
00:00:18	-0.684	71.781			
00:00:18	-0.404	71.781			
00:00:18	-0.342	71.781			
00:00:18	-0.193	71.781			
00:00:18	1.028	71.781			
00:00:18	1.780	71.781			
00:00:18	3.565	71.781			
00:00:18	5.078	71.781			
00:00:18	6.530	71.781			
00:00:18	8.729	71.781			
00:00:18	10.051	71.781			
00:00:18	11.966	71.781			
00:00:18	13.274	71.781			
00:00:18	14.115	71.781			
00:00:18	15.638	71.781			
00:00:18	16.055	71.781			
00:00:18	16.675	71.781			
00:00:18	17.085	71.781			
00:00:18	16.316	71.781			
00:00:18	16.289	71.781			
00:00:18	15.447	71.781			
00:00:18	14.732	71.781			
00:00:18	14.324	71.781			
00:00:18	13.065	71.781			
00:00:18	12.653	71.781			
00:00:18	11.894	73.846			
00:00:18	11.023	73.846			
00:00:18	10.709	73.846			
00:00:18	9.670	73.846			
00:00:18	9.099	73.851			
00:00:18	8.159	73.851			
00:00:18	6.797	73.851			
00:00:18	6.088	73.851			
00:00:18	4.790	73.851			
00:00:18	4.030	73.851			
00:00:18	3.215	73.851			
00:00:18	2.007	73.851			
00:00:18	1.678	73.851			
00:00:18	0.651	73.851			
00:00:18	0.300	73.851			
00:00:18	0.350	73.851			
00:00:18	-0.244	73.851			
00:00:18	0.113	73.851			
00:00:18	-0.073	73.851			
00:00:18	-0.004	73.851			
00:00:18	0.463	73.851			
00:00:18	0.208	73.851			
00:00:18	0.731	73.851			
00:00:18	0.776	73.851			
00:00:18	0.732	73.851			
00:00:18	1.385	73.851			
00:00:18	1.110	73.851			
00:00:18	1.550	73.851			
00:00:18	1.545	73.851			
00:00:18	1.072	73.851			
00:00:18	1.540	73.851			
00:00:18	1.081	73.851			
00:00:18	1.159	73.851			
00:00:18	1.072	73.851			
00:00:18	0.312	73.851			
00:00:18	0.363	73.851			
00:00:18	-0.307	73.851			
00:00:18	-0.732	73.851			
00:00:18	-0.686	73.851			
00:00:18	-1.252	73.851			
00:00:18	-0.834	73.851			
00:00:18	-1.024	73.851			
00:00:18	-1.526	73.851			
00:00:18	-1.307	73.851			
00:00:18	-2.156	73.851			
00:00:18	-1.957	73.851			
00:00:18	-2.084	73.851			
00:00:18	-2.346	73.851			
00:00:18	-1.775	73.851			
00:00:18	-2.190	73.851			
00:00:18	-1.751	73.851			
00:00:18	-1.491	73.851			
00:00:18	-1.848	73.851			
00:00:18	-1.127	73.851			
00:00:18	-1.388	73.851			
00:00:18	-1.247	73.851			
00:00:18	-0.830	73.851			
00:00:18	-1.431	73.851			
00:00:18	-0.876	73.851			
00:00:18	-0.947	73.851			
00:00:19	-0.831	73.851			
00:00:19	-0.091	73.851			
00:00:19	-0.614	73.851			
00:00:19	-0.188	73.851			
00:00:19	-0.082	73.851			
00:00:19	-0.097	73.851			
00:00:19	0.575	73.851			
00:00:19	-0.287	73.851			
00:00:19	-0.285	73.851			
00:00:19	-0.429	73.851			
00:00:19	-0.857	73.851			
00:00:19	-0.238	73.851			
00:00:19	-0.825	73.851			
00:00:19	-0.740	73.851			
00:00:19	-0.535	73.851			
00:00:19	-1.172	73.851			
00:00:19	-0.644	73.851			
00:00:19	-1.026	73.851			
00:00:19	-1.154	73.851			
00:00:19	-0.823	73.851			
00:00:19	-1.237	73.851			
00:00:19	-0.530	73.851			
00:00:19	-0.449	73.851			
00:00:19	0.028	73.851			
00:00:19	1.493	73.851			
00:00:19	2.156	73.851			
00:00:19	4.016	73.851			
00:00:19	5.894	73.851			
00:00:19	7.507	73.851			
00:00:19	10.143	73.851			
00:00:19	11.543	73.851			
00:00:19	13.483	73.851			
00:00:19	15.132	73.851			
00:00:19	15.779	73.851			
00:00:19	17.218	73.851			
00:00:19	17.236	73.851			
00:00:19	17.462	73.851			
00:00:19	17.829	73.851			
00:00:19	17.016	73.851			
00:00:19	17.090	73.851			
00:00:19	16.433	73.851			
00:00:19	15.628	73.851			
00:00:19	15.340	73.851			
00:00:19	14.031	73.851			
00:00:19	13.797	73.851			
00:00:19	12.969	73.851			
00:00:19	11.745	73.851			
00:00:19	11.380	73.851			
00:00:19	9.914	73.143			
00:00:19	9.391	73.143			
00:00:19	8.696	73.143			
00:00:19	7.512	73.143			
00:00:19	7.473	73.148			
00:00:19	5.973	73.148			
00:00:19	5.421	73.148			
00:00:19	4.975	73.148			
00:00:19	3.395	73.148			
00:00:19	3.334	73.148			
00:00:19	2.120	73.148			
00:00:19	1.497	73.148			
00:00:19	1.370	73.148			
00:00:19	-0.050	73.148			
00:00:19	0.280	73.148			
00:00:19	-0.011	73.148			
00:00:19	-0.264	73.148			
00:00:19	0.738	73.148			
00:00:19	0.071	73.148			
00:00:19	0.695	73.148			
00:00:19	0.925	73.148			
00:00:19	0.498	73.148			
00:00:19	1.397	73.148			
00:00:19	0.911	73.148			
00:00:19	1.186	73.148			
00:00:19	1.471	73.148			
00:00:19	0.961	73.148			
00:00:19	1.690	73.148			
00:00:19	1.249	73.148			
00:00:19	1.106	73.148			
00:00:19	1.126	73.148			
00:00:19	0.204	73.148			
00:00:19	0.482	73.148			
00:00:19	-0.238	73.148			
00:00:19	-0.527	73.148			
00:00:19	-0.280	73.148			
00:00:19	-0.885	73.148			
00:00:19	-0.550	73.148			
00:00:19	-0.843	73.148			
00:00:19	-1.309	73.148			
00:00:19	-1.031	73.148			
00:00:19	-1.738	73.148			
00:00:19	-1.428	73.148			
00:00:19	-1.395	73.148			
00:00:19	-1.811	73.148			
00:00:19	-1.292	73.148			
00:00:19	-1.786	73.148			
00:00:19	-1.579	73.148			
00:00:19	-1.475	73.148			
00:00:19	-1.897	73.148			
00:00:19	-1.274	73.148			
00:00:19	-1.602	73.148			
00:00:19	-1.410	73.148			
00:00:19	-1.116	73.148			
00:00:19	-1.712	73.148			
00:00:19	-1.291	73.148			
00:00:19	-1.449	73.148			
00:00:19	-1.263	73.148			
00:00:19	-0.528	73.148			
00:00:19	-0.844	73.148			
00:00:19	-0.328	73.148			
00:00:19	-0.281	73.148			
00:00:19	-0.424	73.148			
00:00:19	0.321	73.148			
00:00:19	-0.142	73.148			
00:00:19	0.131	73.148			
00:00:19	0.093	73.148			
00:00:19	-0.392	73.148			
00:00:19	-0.024	73.148			
00:00:19	-0.784	73.148			
00:00:19	-0.852	73.148			
00:00:19	-0.556	73.148			
00:00:19	-0.978	73.148			
00:00:19	-0.602	73.148			
00:00:19	-1.129	73.148			
00:00:19	-1.432	73.148			
00:00:19	-1.118	73.148			
00:00:19	-1.707	73.148			
00:00:19	-1.089	73.148			
00:00:19	-0.989	73.148			
00:00:20	-1.133	73.148			
00:00:20	-0.414	73.148			
00:00:20	-0.348	73.148			
00:00:20	0.982	73.148			
00:00:20	2.340	73.148			
00:00:20	3.530	73.148			
00:00:20	5.705	73.148			
00:00:20	7.006	73.148			
00:00:20	9.236	73.148			
00:00:20	11.392	73.148			
00:00:20	12.632	73.148			
00:00:20	14.683	73.148			
00:00:20	15.366	73.148			
00:00:20	16.296	73.148			
00:00:20	17.105	73.148			
00:00:20	16.909	73.148			
00:00:20	17.541	73.148			
00:00:20	17.177	73.148			
00:00:20	16.685	73.148			
00:00:20	16.615	73.148			
00:00:20	15.452	73.148			
00:00:20	15.138	73.148			
00:00:20	14.403	73.148			
00:00:20	13.353	73.148			
00:00:20	13.143	71.776			
00:00:20	11.779	71.776			
00:00:20	11.073	71.776			
00:00:20	10.428	71.776			
00:00:20	9.213	71.781			
00:00:20	9.032	71.781			
00:00:20	7.941	71.781			
00:00:20	7.172	71.781			
00:00:20	6.565	71.781			
00:00:20	4.882	71.781			
00:00:20	4.444	71.781			
00:00:20	3.375	71.781			
00:00:20	2.605	71.781			
00:00:20	2.293	71.781			
00:00:20	1.209	71.781			
00:00:20	1.330	71.781			
00:00:20	0.740	71.781			
00:00:20	0.251	71.781			
00:00:20	0.587	71.781			
00:00:20	-0.111	71.781			
00:00:20	0.252	71.781			
00:00:20	0.307	71.781			
00:00:20	0.133	71.781			
00:00:20	0.977	71.781			
00:00:20	0.431	71.781			
00:00:20	0.718	71.781			
00:00:20	1.046	71.781			
00:00:20	0.677	71.781			
00:00:20	1.381	71.781			
00:00:20	0.941	71.781			
00:00:20	0.750	71.781			
00:00:20	1.044	71.781			
00:00:20	0.300	71.781			
00:00:20	0.636	71.781			
00:00:20	0.181	71.781			
00:00:20	-0.202	71.781			
00:00:20	-0.022	71.781			
00:00:20	-0.849	71.781			
00:00:20	-0.410	71.781			
00:00:20	-0.490	71.781			
00:00:20	-0.910	71.781			
00:00:20	-0.411	71.781			
00:00:20	-1.221	71.781			
00:00:20	-1.050	71.781			
00:00:20	-0.841	71.781			
00:00:20	-1.490	71.781			
00:00:20	-1.171	71.781			
00:00:20	-1.949	71.781			
00:00:20	-2.072	71.781			
00:00:20	-1.842	71.781			
00:00:20	-2.515	71.781			
00:00:20	-1.584	71.781			
00:00:20	-1.836	71.781			
00:00:20	-1.760	71.781			
00:00:20	-1.143	71.781			
00:00:20	-1.673	71.781			
00:00:20	-0.968	71.781			
00:00:20	-1.178	71.781			
00:00:20	-1.448	71.781			
00:00:20	-0.785	71.781			
00:00:20	-1.640	71.781			
00:00:20	-0.887	71.781			
00:00:20	-0.475	71.781			
00:00:20	-0.712	71.781			
00:00:20	0.247	71.781			
00:00:20	-0.318	71.781			
00:00:20	-0.202	71.781			
00:00:20	0.127	71.781			
00:00:20	-0.378	71.781			
00:00:20	0.474	71.781			
00:00:20	-0.303	71.781			
00:00:20	-0.333	71.781			
00:00:20	0.030	71.781			
00:00:20	-0.847	71.781			
00:00:20	-0.144	71.781			
00:00:20	-0.631	71.781			
00:00:20	-0.986	71.781			
00:00:20	-0.269	71.781			
00:00:20	-0.941	71.781			
00:00:20	-0.505	71.781			
00:00:20	-0.547	71.781			
00:00:20	-1.079	71.781			
00:00:20	-0.606	71.781			
00:00:20	-1.480	71.781			
00:00:20	-1.275	71.781			
00:00:20	-1.298	71.781			
00:00:20	-1.683	71.781			
00:00:20	-0.424	71.781			
00:00:20	-0.489	71.781			
00:00:20	0.594	71.781			
00:00:20	1.991	71.781			
00:00:20	2.540	71.781			
00:00:20	4.920	71.781			
00:00:20	6.321	71.781			
00:00:20	8.355	71.781			
00:00:20	10.977	71.781			
00:00:20	11.932	71.781			
00:00:20	14.202	71.781			
00:00:20	15.210	71.781			
00:00:20	15.876	71.781			
00:00:20	17.267	71.781			
00:00:20	16.868	71.781			
00:00:20	17.491	71.781			
00:00:20	17.432	71.781			
00:00:21	16.568	71.781			
00:00:21	16.899	71.781			
00:00:21	15.486	71.781			
00:00:21	14.822	71.781			
00:00:21	14.197	71.781			
00:00:21	12.552	71.781			
00:00:21	12.470	71.781			
00:00:21	11.163	71.781			
00:00:21	10.483	69.818			
00:00:21	10.201	69.818			
00:00:21	8.711	69.818			
00:00:21	8.914	69.818			
00:00:21	7.975	69.823			
00:00:21	6.866	69.823			
00:00:21	6.653	69.823			
00:00:21	4.958	69.823			
00:00:21	4.832	69.823			
00:00:21	3.877	69.823			
00:00:21	2.558	69.823			
00:00:21	2.411	69.823			
00:00:21	0.903	69.823			
00:00:21	0.889	69.823			
00:00:21	0.723	69.823			
00:00:21	-0.055	69.823			
00:00:21	0.724	69.823			
00:00:21	0.040	69.823			
00:00:21	0.235	69.823			
00:00:21	0.721	69.823			
00:00:21	0.130	69.823			
00:00:21	0.951	69.823			
00:00:21	0.502	69.823			
00:00:21	0.547	69.823			
00:00:21	1.228	69.823			
00:00:21	0.480	69.823			
00:00:21	1.316	69.823			
00:00:21	1.175	69.823			
00:00:21	0.928	69.823			
00:00:21	1.570	69.823			
00:00:21	0.592	69.823			
00:00:21	0.903	69.823			
00:00:21	0.624	69.823			
00:00:21	0.035	69.823			
00:00:21	0.547	69.823			
00:00:21	-0.455	69.823			
00:00:21	-0.355	69.823			
00:00:21	-0.410	69.823			
00:00:21	-1.266	69.823			
00:00:21	-0.647	69.823			
00:00:21	-1.452	69.823			
00:00:21	-1.548	69.823			
00:00:21	-1.230	69.823			
00:00:21	-2.115	69.823			
00:00:21	-1.362	69.823			
00:00:21	-1.898	69.823			
00:00:21	-2.037	69.823			
00:00:21	-1.291	69.823			
00:00:21	-2.133	69.823			
00:00:21	-1.489	69.823			
00:00:21	-1.575	69.823			
00:00:21	-1.794	69.823			
00:00:21	-0.922	69.823			
00:00:21	-1.655	69.823			
00:00:21	-1.113	69.823			
00:00:21	-0.990	69.823			
00:00:21	-1.535	69.823			
00:00:21	-0.570	69.823			
00:00:21	-1.228	69.823			
00:00:21	-1.003	69.823			
00:00:21	-0.568	69.823			
00:00:21	-1.067	69.823			
00:00:21	0.054	69.823			
00:00:21	-0.270	69.823			
00:00:21	-0.100	69.823			
00:00:21	0.427	69.823			
00:00:21	-0.226	69.823			
00:00:21	0.660	69.823			
00:00:21	0.356	69.823			
00:00:21	0.048	69.823			
00:00:21	0.471	69.823			
00:00:21	-0.453	69.823			
00:00:21	-0.153	69.823			
00:00:21	-0.348	69.823			
00:00:21	-1.012	69.823			
00:00:21	-0.371	69.823			
00:00:21	-1.233	69.823			
00:00:21	-0.882	69.823			
00:00:21	-0.585	69.823			
00:00:21	-1.376	69.823			
00:00:21	-0.803	69.823			
00:00:21	-1.470	69.823			
00:00:21	-1.472	69.823			
00:00:21	-1.087	69.823			
00:00:21	-1.845	69.823			
00:00:21	-1.036	69.823			
00:00:21	-1.086	69.823			
00:00:21	-0.708	69.823			
00:00:21	0.544	69.823			
00:00:21	0.533	69.823			
00:00:21	2.406	69.823			
00:00:21	3.771	69.823			
00:00:21	5.242	69.823			
00:00:21	8.036	69.823			
00:00:21	9.340	69.823			
00:00:21	11.736	69.823			
00:00:21	13.416	69.823			
00:00:21	14.263	69.823			
00:00:21	16.086	69.823			
00:00:21	16.037	69.823			
00:00:21	16.691	69.823			
00:00:21	17.112	69.823			
00:00:21	16.285	69.823			
00:00:21	16.826	69.823			
00:00:21	15.813	69.823			
00:00:21	15.208	69.823			
00:00:21	15.003	69.823			
00:00:21	13.489	69.823			
00:00:21	13.341	69.823			
00:00:21	12.103	69.823			
00:00:21	10.955	69.823			
00:00:21	10.561	69.823			
00:00:21	8.931	69.189			
00:00:21	8.556	69.189			
00:00:21	7.755	69.189			
00:00:21	6.544	69.189			
00:00:21	6.613	69.194			
00:00:21	5.226	69.194			
00:00:21	4.754	69.194			
00:00:21	4.029	69.194			
00:00:22	2.539	69.194			
00:00:22	2.428	69.194			
00:00:22	1.222	69.194			
00:00:22	0.740	69.194			
00:00:22	0.703	69.194			
00:00:22	-0.325	69.194			
00:00:22	0.410	69.194			
00:00:22	-0.168	69.194			
00:00:22	-0.476	69.194			
00:00:22	0.146	69.194			
00:00:22	-0.569	69.194			
00:00:22	0.327	69.194			
00:00:22	0.441	69.194			
00:00:22	0.444	69.194			
00:00:22	1.321	69.194			
00:00:22	0.785	69.194			
00:00:22	1.489	69.194			
00:00:22	1.592	69.194			
00:00:22	1.068	69.194			
00:00:22	1.600	69.194			
00:00:22	0.840	69.194			
00:00:22	1.010	69.194			
00:00:22	1.142	69.194			
00:00:22	0.440	69.194			
00:00:22	0.887	69.194			
00:00:22	0.324	69.194			
00:00:22	0.267	69.194			
00:00:22	0.428	69.194			
00:00:22	-0.496	69.194			
00:00:22	-0.144	69.194			
00:00:22	-0.856	69.194			
00:00:22	-1.166	69.194			
00:00:22	-0.801	69.194			
00:00:22	-1.552	69.194			
00:00:22	-1.261	69.194			
00:00:22	-1.593	69.194			
00:00:22	-2.115	69.194			
00:00:22	-1.784	69.194			
00:00:22	-2.406	69.194			
00:00:22	-1.958	69.194			
00:00:22	-1.770	69.194			
00:00:22	-1.994	69.194			
00:00:22	-1.239	69.194			
00:00:22	-1.524	69.194			
00:00:22	-1.335	69.194			
00:00:22	-1.023	69.194			
00:00:22	-1.386	69.194			
00:00:22	-0.682	69.194			
00:00:22	-1.021	69.194			
00:00:22	-1.028	69.194			
00:00:22	-0.320	69.194			
00:00:22	-0.716	69.194			
00:00:22	-0.131	69.194			
00:00:22	-0.370	69.194			
00:00:22	-0.501	69.194			
00:00:22	0.170	69.194			
00:00:22	-0.343	69.194			
00:00:22	0.233	69.194			
00:00:22	0.231	69.194			
00:00:22	-0.215	69.194			
00:00:22	0.285	69.194			
00:00:22	-0.260	69.194			
00:00:22	-0.199	69.194			
00:00:22	-0.092	69.194			
00:00:22	-0.701	69.194			
00:00:22	-0.263	69.194			
00:00:22	-0.708	69.194			
00:00:22	-0.582	69.194			
00:00:22	-0.256	69.194			
00:00:22	-1.031	69.194			
00:00:22	-0.434	69.194			
00:00:22	-0.653	69.194			
00:00:22	-0.872	69.194			
00:00:22	-0.463	69.194			
00:00:22	-0.926	69.194			
00:00:22	-0.043	69.194			
00:00:22	0.513	69.194			
00:00:22	1.001	69.194			
00:00:22	2.681	69.194			
00:00:22	3.674	69.194			
00:00:22	5.782	69.194			
00:00:22	7.904	69.194			
00:00:22	9.300	69.194			
00:00:22	11.384	69.194			
00:00:22	12.269	69.194			
00:00:22	13.676	69.194			
00:00:22	14.995	69.194			
00:00:22	15.141	69.194			
00:00:22	16.055	69.194			
00:00:22	15.632	69.194			
00:00:22	15.393	69.194			
00:00:22	15.428	69.194			
00:00:22	14.254	69.194			
00:00:22	14.069	69.194			
00:00:22	13.140	69.194			
00:00:22	12.178	69.194			
00:00:22	11.938	71.776			
00:00:22	10.497	71.776			
00:00:22	10.106	71.776			
00:00:22	9.272	71.776			
00:00:22	8.078	71.781			
00:00:22	7.948	71.781			
00:00:22	6.677	71.781			
00:00:22	6.096	71.781			
00:00:22	5.480	71.781			
00:00:22	4.476	71.781			
00:00:22	4.380	71.781			
00:00:22	3.306	71.781			
00:00:22	2.583	71.781			
00:00:22	1.937	71.781			
00:00:22	0.635	71.781			
00:00:22	0.780	71.781			
00:00:22	0.212	71.781			
00:00:22	-0.088	71.781			
00:00:22	0.215	71.781			
00:00:22	-0.387	71.781			
00:00:22	0.157	71.781			
00:00:22	0.053	71.781			
00:00:22	0.047	71.781			
00:00:22	0.837	71.781			
00:00:22	0.432	71.781			
00:00:22	0.903	71.781			
00:00:22	0.997	71.781			
00:00:22	0.609	71.781			
00:00:22	1.298	71.781			
00:00:22	0.833	71.781			
00:00:22	0.929	71.781			
00:00:22	1.094	71.781			
00:00:23	0.564	71.781			
00:00:23	1.079	71.781			
00:00:23	0.414	71.781			
00:00:23	0.234	71.781			
00:00:23	0.273	71.781			
00:00:23	-0.306	71.781			
00:00:23	0.116	71.781			
00:00:23	-0.204	71.781			
00:00:23	-0.430	71.781			
00:00:23	-0.202	71.781			
00:00:23	-0.948	71.781			
00:00:23	-0.585	71.781			
00:00:23	-0.662	71.781			
00:00:23	-0.971	71.781			
00:00:23	-0.671	71.781			
00:00:23	-1.347	71.781			
00:00:23	-1.178	71.781			
00:00:23	-1.177	71.781			
00:00:23	-1.612	71.781			
00:00:23	-1.075	71.781			
00:00:23	-1.709	71.781			
00:00:23	-1.846	71.781			
00:00:23	-1.775	71.781			
00:00:23	-2.285	71.781			
00:00:23	-1.745	71.781			
00:00:23	-1.882	71.781			
00:00:23	-1.863	71.781			
00:00:23	-1.522	71.781			
00:00:23	-2.002	71.781			
00:00:23	-1.528	71.781			
00:00:23	-1.366	71.781			
00:00:23	-1.361	71.781			
00:00:23	-0.678	71.781			
00:00:23	-0.980	71.781			
00:00:23	-0.485	71.781			
00:00:23	-0.185	71.781			
00:00:23	-0.247	71.781			
00:00:23	0.568	71.781			
00:00:23	0.268	71.781			
00:00:23	0.371	71.781			
00:00:23	0.351	71.781			
00:00:23	-0.118	71.781			
00:00:23	0.168	71.781			
00:00:23	-0.200	71.781			
00:00:23	-0.182	71.781			
00:00:23	0.085	71.781			
00:00:23	-0.536	71.781			
00:00:23	-0.312	71.781			
00:00:23	-0.584	71.781			
00:00:23	-0.682	71.781			
00:00:23	-0.361	71.781			
00:00:23	-0.850	71.781			
00:00:23	-0.272	71.781			
00:00:23	-0.244	71.781			
00:00:23	-0.254	71.781			
00:00:23	0.806	71.781			
00:00:23	1.342	71.781			
00:00:23	2.860	71.781			
00:00:23	4.511	71.781			
00:00:23	6.019	71.781			
00:00:23	8.352	71.781			
00:00:23	9.668	71.781			
00:00:23	11.784	71.781			
00:00:23	13.856	71.781			
00:00:23	14.973	71.781			
00:00:23	16.523	71.781			
00:00:23	16.811	71.781			
00:00:23	17.159	71.781			
00:00:23	17.576	71.781			
00:00:23	16.985	71.781			
00:00:23	17.130	71.781			
00:00:23	16.320	71.781			
00:00:23	15.336	71.781			
00:00:23	14.824	71.781			
00:00:23	13.430	71.781			
00:00:23	13.071	71.781			
00:00:23	12.389	71.111			
00:00:23	11.296	71.111			
00:00:23	10.851	71.111			
00:00:23	9.664	71.111			
00:00:23	9.027	71.116			
00:00:23	8.342	71.116			
00:00:23	7.133	71.116			
00:00:23	6.663	71.116			
00:00:23	5.413	71.116			
00:00:23	4.701	71.116			
00:00:23	4.222	71.116			
00:00:23	3.217	71.116			
00:00:23	3.176	71.116			
00:00:23	2.421	71.116			
00:00:23	1.671	71.116			
00:00:23	1.524	71.116			
00:00:23	0.785	71.116			
00:00:23	0.983	71.116			
00:00:23	0.776	71.116			
00:00:23	0.606	71.116			
00:00:23	1.159	71.116			
00:00:23	0.758	71.116			
00:00:23	1.098	71.116			
00:00:23	1.449	71.116			
00:00:23	1.358	71.116			
00:00:23	1.872	71.116			
00:00:23	1.558	71.116			
00:00:23	1.616	71.116			
00:00:23	1.552	71.116			
00:00:23	0.901	71.116			
00:00:23	1.214	71.116			
00:00:23	0.741	71.116			
00:00:23	0.649	71.116			
00:00:23	0.683	71.116			
00:00:23	0.153	71.116			
00:00:23	0.398	71.116			
00:00:23	0.164	71.116			
00:00:23	-0.161	71.116			
00:00:23	0.050	71.116			
00:00:23	-0.455	71.116			
00:00:23	-0.151	71.116			
00:00:23	-0.216	71.116			
00:00:23	-0.592	71.116			
00:00:23	-0.221	71.116			
00:00:23	-0.851	71.116			
00:00:23	-0.771	71.116			
00:00:23	-0.928	71.116			
00:00:23	-1.467	71.116			
00:00:23	-1.105	71.116			
00:00:23	-1.485	71.116			
00:00:23	-1.301	71.116			
00:00:23	-1.103	71.116			
00:00:24	-1.590	71.116			
00:00:24	-1.192	71.116			
00:00:24	-1.428	71.116			
00:00:24	-1.637	71.116			
00:00:24	-1.315	71.116			
00:00:24	-1.631	71.116			
00:00:24	-1.044	71.116			
00:00:24	-0.914	71.116			
00:00:24	-1.073	71.116			
00:00:24	-0.638	71.116			
00:00:24	-0.946	71.116			
00:00:24	-0.503	71.116			
00:00:24	-0.252	71.116			
00:00:24	-0.461	71.116			
00:00:24	0.181	71.116			
00:00:24	-0.080	71.116			
00:00:24	0.271	71.116			
00:00:24	0.739	71.116			
00:00:24	0.553	71.116			
00:00:24	1.130	71.116			
00:00:24	0.857	71.116			
00:00:24	0.761	71.116			
00:00:24	0.947	71.116			
00:00:24	0.291	71.116			
00:00:24	0.574	71.116			
00:00:24	0.228	71.116			
00:00:24	-0.014	71.116			
00:00:24	0.060	71.116			
00:00:24	-0.575	71.116			
00:00:24	-0.333	71.116			
00:00:24	-0.580	71.116			
00:00:24	-0.837	71.116			
00:00:24	-0.380	71.116			
00:00:24	-0.592	71.116			
00:00:24	0.041	71.116			
00:00:24	0.702	71.116			
00:00:24	1.384	71.116			
00:00:24	3.052	71.116			
00:00:24	4.131	71.116			
00:00:24	5.836	71.116			
00:00:24	7.880	71.116			
00:00:24	9.441	71.116			
00:00:24	11.662	71.116			
00:00:24	12.975	71.116			
00:00:24	14.391	71.116			
00:00:24	15.868	71.116			
00:00:24	16.410	71.116			
00:00:24	17.365	71.116			
00:00:24	17.388	71.116			
00:00:24	17.115	71.116			
00:00:24	17.111	71.116			
00:00:24	16.223	71.116			
00:00:24	15.719	71.116			
00:00:24	15.009	71.116			
00:00:24	13.976	71.116			
00:00:24	13.653	71.116			
00:00:24	12.385	71.111			
00:00:24	11.495	71.111			
00:00:24	10.769	71.111			
00:00:24	9.604	71.111			
00:00:24	9.553	71.116			
00:00:24	8.580	71.116			
00:00:24	7.992	71.116			
00:00:24	7.488	71.116			
00:00:24	6.061	71.116			
00:00:24	5.656	71.116			
00:00:24	4.638	71.116			
00:00:24	3.796	71.116			
00:00:24	3.302	71.116			
00:00:24	2.035	71.116			
00:00:24	1.713	71.116			
00:00:24	1.284	71.116			
00:00:24	0.681	71.116			
00:00:24	0.976	71.116			
00:00:24	0.459	71.116			
00:00:24	0.819	71.116			
00:00:24	1.002	71.116			
00:00:24	0.780	71.116			
00:00:24	1.461	71.116			
00:00:24	1.182	71.116			
00:00:24	1.515	71.116			
00:00:24	1.957	71.116			
00:00:24	1.839	71.116			
00:00:24	2.370	71.116			
00:00:24	2.037	71.116			
00:00:24	1.773	71.116			
00:00:24	1.838	71.116			
00:00:24	1.290	71.116			
00:00:24	1.307	71.116			
00:00:24	0.898	71.116			
00:00:24	0.444	71.116			
00:00:24	0.660	71.116			
00:00:24	0.145	71.116			
00:00:24	0.190	71.116			
00:00:24	0.044	71.116			
00:00:24	-0.352	71.116			
00:00:24	-0.142	71.116			
00:00:24	-0.634	71.116			
00:00:24	-0.444	71.116			
00:00:24	-0.329	71.116			
00:00:24	-0.701	71.116			
00:00:24	-0.192	71.116			
00:00:24	-0.727	71.116			
00:00:24	-0.882	71.116			
00:00:24	-0.823	71.116			
00:00:24	-1.242	71.116			
00:00:24	-0.623	71.116			
00:00:24	-0.752	71.116			
00:00:24	-0.723	71.116			
00:00:24	-0.451	71.116			
00:00:24	-1.103	71.116			
00:00:24	-0.833	71.116			
00:00:24	-1.033	71.116			
00:00:24	-1.239	71.116			
00:00:24	-0.757	71.116			
00:00:24	-0.913	71.116			
00:00:24	-0.552	71.116			
00:00:24	-0.381	71.116			
00:00:24	-0.553	71.116			
00:00:24	0.041	71.116			
00:00:24	-0.154	71.116			
00:00:24	0.081	71.116			
00:00:24	0.340	71.116			
00:00:24	0.213	71.116			
00:00:24	0.669	71.116			
00:00:24	0.262	71.116			
00:00:24	0.338	71.116			
00:00:24	0.532	71.116			
00:00:25	0.018	71.116			
00:00:25	0.419	71.116			
00:00:25	0.212	71.116			
00:00:25	0.096	71.116			
00:00:25	0.456	71.116			
00:00:25	-0.147	71.116			
00:00:25	0.224	71.116			
00:00:25	0.160	71.116			
00:00:25	-0.293	71.116			
00:00:25	0.011	71.116			
00:00:25	-0.525	71.116			
00:00:25	-0.640	71.116			
00:00:25	-0.710	71.116			
00:00:25	-1.222	71.116			
00:00:25	-0.610	71.116			
00:00:25	-0.624	71.116			
00:00:25	0.137	71.116			
00:00:25	1.311	71.116			
00:00:25	2.121	71.116			
00:00:25	3.936	71.116			
00:00:25	5.330	71.116			
00:00:25	7.154	71.116			
00:00:25	9.522	71.116			
00:00:25	10.977	71.116			
00:00:25	13.057	71.116			
00:00:25	14.178	71.116			
00:00:25	14.933	71.116			
00:00:25	16.119	71.116			
00:00:25	16.043	71.116			
00:00:25	16.451	71.116			
00:00:25	16.483	71.116			
00:00:25	15.955	71.116			
00:00:25	15.974	71.116			
00:00:25	14.912	71.116			
00:00:25	14.537	71.116			
00:00:25	14.082	71.116			
00:00:25	12.702	71.116			
00:00:25	12.292	71.116			
00:00:25	11.095	71.116			
00:00:25	10.162	71.116			
00:00:25	9.683	70.459			
00:00:25	8.408	70.459			
00:00:25	8.144	70.459			
00:00:25	7.206	70.459			
00:00:25	6.343	70.464			
00:00:25	6.016	70.464			
00:00:25	4.831	70.464			
00:00:25	4.454	70.464			
00:00:25	3.621	70.464			
00:00:25	2.657	70.464			
00:00:25	2.436	70.464			
00:00:25	1.520	70.464			
00:00:25	1.491	70.464			
00:00:25	1.242	70.464			
00:00:25	0.716	70.464			
00:00:25	1.272	70.464			
00:00:25	1.128	70.464			
00:00:25	1.605	70.464			
00:00:25	1.992	70.464			
00:00:25	1.432	70.464			
00:00:25	2.131	70.464			
00:00:25	1.880	70.464			
00:00:25	1.921	70.464			
00:00:25	2.400	70.464			
00:00:25	1.715	70.464			
00:00:25	2.070	70.464			
00:00:25	1.718	70.464			
00:00:25	1.250	70.464			
00:00:25	1.544	70.464			
00:00:25	0.768	70.464			
00:00:25	1.102	70.464			
00:00:25	1.018	70.464			
00:00:25	0.437	70.464			
00:00:25	0.851	70.464			
00:00:25	0.228	70.464			
00:00:25	0.193	70.464			
00:00:25	0.181	70.464			
00:00:25	-0.305	70.464			
00:00:25	0.200	70.464			
00:00:25	-0.358	70.464			
00:00:25	-0.474	70.464			
00:00:25	-0.162	70.464			
00:00:25	-0.579	70.464			
00:00:25	-0.162	70.464			
00:00:25	-0.442	70.464			
00:00:25	-0.714	70.464			
00:00:25	-0.378	70.464			
00:00:25	-1.032	70.464			
00:00:25	-0.693	70.464			
00:00:25	-0.783	70.464			
00:00:25	-1.084	70.464			
00:00:25	-0.513	70.464			
00:00:25	-0.920	70.464			
00:00:25	-0.482	70.464			
00:00:25	-0.325	70.464			
00:00:25	-0.780	70.464			
00:00:25	0.046	70.464			
00:00:25	-0.345	70.464			
00:00:25	-0.259	70.464			
00:00:25	0.147	70.464			
00:00:25	-0.415	70.464			
00:00:25	0.282	70.464			
00:00:25	0.122	70.464			
00:00:25	0.245	70.464			
00:00:25	0.858	70.464			
00:00:25	0.410	70.464			
00:00:25	1.018	70.464			
00:00:25	0.853	70.464			
00:00:25	0.648	70.464			
00:00:25	1.244	70.464			
00:00:25	0.718	70.464			
00:00:25	1.068	70.464			
00:00:25	0.974	70.464			
00:00:25	0.393	70.464			
00:00:25	0.890	70.464			
00:00:25	0.190	70.464			
00:00:25	0.128	70.464			
00:00:25	0.031	70.464			
00:00:25	-0.725	70.464			
00:00:25	-0.095	70.464			
00:00:25	-0.533	70.464			
00:00:25	-0.510	70.464			
00:00:25	0.066	70.464			
00:00:25	0.013	70.464			
00:00:25	1.182	70.464			
00:00:25	1.750	70.464			
00:00:25	2.840	70.464			
00:00:25	4.714	70.464			
00:00:26	5.711	70.464			
00:00:26	7.850	70.464			
00:00:26	9.446	70.464			
00:00:26	10.951	70.464			
00:00:26	12.962	70.464			
00:00:26	13.409	70.464			
00:00:26	14.599	70.464			
00:00:26	15.295	70.464			
00:00:26	15.311	70.464			
00:00:26	16.145	70.464			
00:00:26	15.442	70.464			
00:00:26	15.443	70.464			
00:00:26	15.287	70.464			
00:00:26	14.023	70.464			
00:00:26	13.958	70.464			
00:00:26	12.792	70.464			
00:00:26	11.911	70.464			
00:00:26	11.464	70.464			
00:00:26	10.055	70.464			
00:00:26	9.933	70.464			
00:00:26	9.053	71.111			
00:00:26	8.138	71.111			
00:00:26	7.927	71.111			
00:00:26	6.495	71.111			
00:00:26	5.999	71.116			
00:00:26	4.847	71.116			
00:00:26	3.628	71.116			
00:00:26	3.484	71.116			
00:00:26	2.340	71.116			
00:00:26	2.077	71.116			
00:00:26	1.724	71.116			
00:00:26	0.793	71.116			
00:00:26	1.168	71.116			
00:00:26	0.609	71.116			
00:00:26	0.626	71.116			
00:00:26	0.929	71.116			
00:00:26	0.392	71.116			
00:00:26	1.318	71.116			
00:00:26	1.369	71.116			
00:00:26	1.394	71.116			
00:00:26	2.062	71.116			
00:00:26	1.763	71.116			
00:00:26	2.515	71.116			
00:00:26	2.283	71.116			
00:00:26	1.883	71.116			
00:00:26	2.335	71.116			
00:00:26	1.562	71.116			
00:00:26	1.821	71.116			
00:00:26	1.770	71.116			
00:00:26	1.237	71.116			
00:00:26	1.616	71.116			
00:00:26	0.897	71.116			
00:00:26	0.887	71.116			
00:00:26	0.857	71.116			
00:00:26	0.023	71.116			
00:00:26	0.522	71.116			
00:00:26	-0.027	71.116			
00:00:26	-0.341	71.116			
00:00:26	-0.297	71.116			
00:00:26	-1.160	71.116			
00:00:26	-0.651	71.116			
00:00:26	-0.880	71.116			
00:00:26	-0.970	71.116			
00:00:26	-0.340	71.116			
00:00:26	-0.788	71.116			
00:00:26	-0.356	71.116			
00:00:26	-0.451	71.116			
00:00:26	-0.819	71.116			
00:00:26	-0.403	71.116			
00:00:26	-0.877	71.116			
00:00:26	-0.739	71.116			
00:00:26	-0.766	71.116			
00:00:26	-1.265	71.116			
00:00:26	-0.467	71.116			
00:00:26	-0.744	71.116			
00:00:26	-0.454	71.116			
00:00:26	-0.104	71.116			
00:00:26	-0.698	71.116			
00:00:26	-0.095	71.116			
00:00:26	-0.531	71.116			
00:00:26	-0.543	71.116			
00:00:26	0.036	71.116			
00:00:26	-0.437	71.116			
00:00:26	0.337	71.116			
00:00:26	0.213	71.116			
00:00:26	-0.027	71.116			
00:00:26	0.799	71.116			
00:00:26	0.339	71.116			
00:00:26	0.843	71.116			
00:00:26	1.061	71.116			
00:00:26	0.670	71.116			
00:00:26	1.024	71.116			
00:00:26	0.220	71.116			
00:00:26	0.291	71.116			
00:00:26	0.321	71.116			
00:00:26	-0.403	71.116			
00:00:26	-0.003	71.116			
00:00:26	-0.636	71.116			
00:00:26	-0.415	71.116			
00:00:26	0.054	71.116			
00:00:26	-0.699	71.116			
00:00:26	-0.236	71.116			
00:00:26	-0.396	71.116			
00:00:26	-0.324	71.116			
00:00:26	0.789	71.116			
00:00:26	1.110	71.116			
00:00:26	2.837	71.116			
00:00:26	4.312	71.116			
00:00:26	5.853	71.116			
00:00:26	8.308	71.116			
00:00:26	9.528	71.116			
00:00:26	11.602	71.116			
00:00:26	12.975	71.116			
00:00:26	13.795	71.116			
00:00:26	15.420	71.116			
00:00:26	15.474	71.116			
00:00:26	16.017	71.116			
00:00:26	16.656	71.116			
00:00:26	16.311	71.116			
00:00:26	16.856	71.116			
00:00:26	16.235	71.116			
00:00:26	15.654	71.116			
00:00:26	15.464	71.116			
00:00:26	14.214	71.116			
00:00:26	13.843	71.116			
00:00:26	12.739	71.116			
00:00:26	11.664	71.116			
00:00:26	11.312	71.116			
00:00:27	9.874	70.459			
00:00:27	9.593	70.459			
00:00:27	8.834	70.459			
00:00:27	7.743	70.459			
00:00:27	7.628	70.464			
00:00:27	6.322	70.464			
00:00:27	5.847	70.464			
00:00:27	5.200	70.464			
00:00:27	3.883	70.464			
00:00:27	3.685	70.464			
00:00:27	2.439	70.464			
00:00:27	2.088	70.464			
00:00:27	1.992	70.464			
00:00:27	1.008	70.464			
00:00:27	1.374	70.464			
00:00:27	0.884	70.464			
00:00:27	0.756	70.464			
00:00:27	1.219	70.464			
00:00:27	0.716	70.464			
00:00:27	1.607	70.464			
00:00:27	1.799	70.464			
00:00:27	1.835	70.464			
00:00:27	2.605	70.464			
00:00:27	2.057	70.464			
00:00:27	2.306	70.464			
00:00:27	2.119	70.464			
00:00:27	1.381	70.464			
00:00:27	1.600	70.464			
00:00:27	0.993	70.464			
00:00:27	1.062	70.464			
00:00:27	1.203	70.464			
00:00:27	0.655	70.464			
00:00:27	1.202	70.464			
00:00:27	0.478	70.464			
00:00:27	0.267	70.464			
00:00:27	0.415	70.464			
00:00:27	-0.506	70.464			
00:00:27	-0.088	70.464			
00:00:27	-0.413	70.464			
00:00:27	-0.521	70.464			
00:00:27	0.055	70.464			
00:00:27	-0.533	70.464			
00:00:27	-0.086	70.464			
00:00:27	-0.239	70.464			
00:00:27	-0.735	70.464			
00:00:27	-0.319	70.464			
00:00:27	-1.013	70.464			
00:00:27	-0.738	70.464			
00:00:27	-0.789	70.464			
00:00:27	-1.198	70.464			
00:00:27	-0.500	70.464			
00:00:27	-0.901	70.464			
00:00:27	-0.650	70.464			
00:00:27	-0.376	70.464			
00:00:27	-0.896	70.464			
00:00:27	-0.234	70.464			
00:00:27	-0.498	70.464			
00:00:27	-0.605	70.464			
00:00:27	-0.198	70.464			
00:00:27	-0.773	70.464			
00:00:27	-0.098	70.464			
00:00:27	0.009	70.464			
00:00:27	-0.068	70.464			
00:00:27	0.610	70.464			
00:00:27	0.153	70.464			
00:00:27	0.645	70.464			
00:00:27	0.795	70.464			
00:00:27	0.391	70.464			
00:00:27	1.070	70.464			
00:00:27	0.394	70.464			
00:00:27	0.659	70.464			
00:00:27	0.820	70.464			
00:00:27	0.317	70.464			
00:00:27	1.050	70.464			
00:00:27	0.518	70.464			
00:00:27	0.500	70.464			
00:00:27	0.669	70.464			
00:00:27	-0.036	70.464			
00:00:27	0.415	70.464			
00:00:27	-0.004	70.464			
00:00:27	-0.272	70.464			
00:00:27	0.103	70.464			
00:00:27	-0.761	70.464			
00:00:27	-0.646	70.464			
00:00:27	-0.751	70.464			
00:00:27	-1.030	70.464			
00:00:27	-0.072	70.464			
00:00:27	0.037	70.464			
00:00:27	1.489	70.464			
00:00:27	3.088	70.464			
00:00:27	4.305	70.464			
00:00:27	6.963	70.464			
00:00:27	8.163	70.464			
00:00:27	10.198	70.464			
00:00:27	12.211	70.464			
00:00:27	13.017	70.464			
00:00:27	14.981	70.464			
00:00:27	15.430	70.464			
00:00:27	15.962	70.464			
00:00:27	16.872	70.464			
00:00:27	16.401	70.464			
00:00:27	17.194	70.464			
00:00:27	16.747	70.464			
00:00:27	16.054	70.464			
00:00:27	16.127	70.464			
00:00:27	14.599	70.464			
00:00:27	14.208	70.464			
00:00:27	13.357	70.464			
00:00:27	12.177	70.464			
00:00:27	12.112	70.464			
00:00:27	10.681	70.464			
00:00:27	10.012	70.464			
00:00:27	9.485	69.189			
00:00:27	8.125	69.189			
00:00:27	8.168	69.189			
00:00:27	6.972	69.189			
00:00:27	6.383	69.194			
00:00:27	5.953	69.194			
00:00:27	4.470	69.194			
00:00:27	4.441	69.194			
00:00:27	3.352	69.194			
00:00:27	2.482	69.194			
00:00:27	2.374	69.194			
00:00:27	1.238	69.194			
00:00:27	1.453	69.194			
00:00:27	1.122	69.194			
00:00:27	0.702	69.194			
00:00:27	1.524	69.194			
00:00:28	0.855	69.194			
00:00:28	1.411	69.194			
00:00:28	1.502	69.194			
00:00:28	1.129	69.194			
00:00:28	1.862	69.194			
00:00:28	1.194	69.194			
00:00:28	1.336	69.194			
00:00:28	1.544	69.194			
00:00:28	0.871	69.194			
00:00:28	1.679	69.194			
00:00:28	1.337	69.194			
00:00:28	1.237	69.194			
00:00:28	1.693	69.194			
00:00:28	0.810	69.194			
00:00:28	1.136	69.194			
00:00:28	0.668	69.194			
00:00:28	0.244	69.194			
00:00:28	0.747	69.194			
00:00:28	-0.236	69.194			
00:00:28	0.011	69.194			
00:00:28	-0.017	69.194			
00:00:28	-0.421	69.194			
00:00:28	0.257	69.194			
00:00:28	-0.623	69.194			
00:00:28	-0.342	69.194			
00:00:28	-0.259	69.194			
00:00:28	-0.897	69.194			
00:00:28	-0.172	69.194			
00:00:28	-0.947	69.194			
00:00:28	-0.753	69.194			
00:00:28	-0.363	69.194			
00:00:28	-1.343	69.194			
00:00:28	-0.726	69.194			
00:00:28	-1.274	69.194			
00:00:28	-1.336	69.194			
00:00:28	-0.690	69.194			
00:00:28	-1.141	69.194			
00:00:28	-0.281	69.194			
00:00:28	-0.391	69.194			
00:00:28	-0.651	69.194			
00:00:28	-0.108	69.194			
00:00:28	-0.944	69.194			
00:00:28	-0.634	69.194			
00:00:28	-0.584	69.194			
00:00:28	-0.829	69.194			
00:00:28	0.189	69.194			
00:00:28	-0.164	69.194			
00:00:28	0.499	69.194			
00:00:28	1.090	69.194			
00:00:28	0.736	69.194			
00:00:28	1.686	69.194			
00:00:28	1.101	69.194			
00:00:28	1.006	69.194			
00:00:28	1.291	69.194			
00:00:28	0.206	69.194			
00:00:28	0.682	69.194			
00:00:28	0.127	69.194			
00:00:28	-0.273	69.194			
00:00:28	0.221	69.194			
00:00:28	-0.593	69.194			
00:00:28	0.037	69.194			
00:00:28	-0.060	69.194			
00:00:28	-0.559	69.194			
00:00:28	-0.071	69.194			
00:00:28	-0.821	69.194			
00:00:28	-0.642	69.194			
00:00:28	-0.672	69.194			
00:00:28	-1.267	69.194			
00:00:28	-0.494	69.194			
00:00:28	-0.695	69.194			
00:00:28	0.012	69.194			
00:00:28	1.234	69.194			
00:00:28	1.865	69.194			
00:00:28	4.021	69.194			
00:00:28	5.279	69.194			
00:00:28	6.900	69.194			
00:00:28	9.106	69.194			
00:00:28	10.077	69.194			
00:00:28	12.258	69.194			
00:00:28	13.332	69.194			
00:00:28	14.373	69.194			
00:00:28	15.874	69.194			
00:00:28	15.748	69.194			
00:00:28	16.632	69.194			
00:00:28	16.612	69.194			
00:00:28	16.020	69.194			
00:00:28	16.489	69.194			
00:00:28	15.172	69.194			
00:00:28	14.621	69.194			
00:00:28	13.802	69.194			
00:00:28	12.287	69.194			
00:00:28	12.228	69.194			
00:00:28	10.928	69.818			
00:00:28	10.286	69.818			
00:00:28	10.019	69.818			
00:00:28	8.502	69.818			
00:00:28	8.395	69.823			
00:00:28	7.436	69.823			
00:00:28	6.637	69.823			
00:00:28	6.544	69.823			
00:00:28	5.193	69.823			
00:00:28	5.120	69.823			
00:00:28	4.349	69.823			
00:00:28	3.171	69.823			
00:00:28	3.068	69.823			
00:00:28	1.871	69.823			
00:00:28	1.983	69.823			
00:00:28	1.669	69.823			
00:00:28	0.918	69.823			
00:00:28	1.325	69.823			
00:00:28	0.459	69.823			
00:00:28	0.566	69.823			
00:00:28	0.790	69.823			
00:00:28	0.233	69.823			
00:00:28	1.332	69.823			
00:00:28	1.248	69.823			
00:00:28	1.509	69.823			
00:00:28	2.152	69.823			
00:00:28	1.447	69.823			
00:00:28	1.981	69.823			
00:00:28	1.551	69.823			
00:00:28	1.305	69.823			
00:00:28	1.912	69.823			
00:00:28	1.299	69.823			
00:00:28	1.904	69.823			
00:00:28	1.859	69.823			
00:00:28	1.395	69.823			
00:00:28	1.856	69.823			
00:00:29	0.821	69.823			
00:00:29	0.871	69.823			
00:00:29	0.756	69.823			
00:00:29	0.098	69.823			
00:00:29	0.741	69.823			
00:00:29	-0.070	69.823			
00:00:29	-0.078	69.823			
00:00:29	0.053	69.823			
00:00:29	-1.076	69.823			
00:00:29	-0.475	69.823			
00:00:29	-1.004	69.823			
00:00:29	-1.151	69.823			
00:00:29	-0.420	69.823			
00:00:29	-0.982	69.823			
00:00:29	-0.243	69.823			
00:00:29	-0.486	69.823			
00:00:29	-0.949	69.823			
00:00:29	-0.359	69.823			
00:00:29	-1.159	69.823			
00:00:29	-0.678	69.823			
00:00:29	-0.461	69.823			
00:00:29	-0.718	69.823			
00:00:29	0.303	69.823			
00:00:29	0.054	69.823			
00:00:29	0.593	69.823			
00:00:29	0.880	69.823			
00:00:29	0.300	69.823			
00:00:29	1.040	69.823			
00:00:29	0.526	69.823			
00:00:29	0.648	69.823			
00:00:29	1.042	69.823			
00:00:29	0.297	69.823			
00:00:29	0.933	69.823			
00:00:29	0.492	69.823			
00:00:29	0.169	69.823			
00:00:29	0.740	69.823			
00:00:29	-0.133	69.823			
00:00:29	0.348	69.823			
00:00:29	0.287	69.823			
00:00:29	-0.093	69.823			
00:00:29	0.508	69.823			
00:00:29	-0.230	69.823			
00:00:29	0.115	69.823			
00:00:29	0.049	69.823			
00:00:29	-0.602	69.823			
00:00:29	0.114	69.823			
00:00:29	-0.570	69.823			
00:00:29	-0.273	69.823			
00:00:29	0.042	69.823			
00:00:29	-0.724	69.823			
00:00:29	0.020	69.823			
00:00:29	-0.213	69.823			
00:00:29	0.317	69.823			
00:00:29	1.708	69.823			
00:00:29	2.289	69.823			
00:00:29	4.386	69.823			
00:00:29	5.827	69.823			
00:00:29	7.339	69.823			
00:00:29	9.404	69.823			
00:00:29	10.143	69.823			
00:00:29	12.100	69.823			
00:00:29	13.187	69.823			
00:00:29	13.728	69.823			
00:00:29	15.145	69.823			
00:00:29	14.844	69.823			
00:00:29	15.215	69.823			
00:00:29	15.224	69.823			
00:00:29	14.309	69.823			
00:00:29	14.785	69.823			
00:00:29	13.825	69.823			
00:00:29	13.602	69.823			
00:00:29	13.508	69.823			
00:00:29	12.152	69.823			
00:00:29	12.038	69.823			
00:00:29	10.618	69.823			
00:00:29	9.455	69.823			
00:00:29	9.061	69.818			
00:00:29	7.504	69.818			
00:00:29	7.306	69.818			
00:00:29	6.401	69.818			
00:00:29	5.377	69.823			
00:00:29	5.163	69.823			
00:00:29	3.448	69.823			
00:00:29	2.904	69.823			
00:00:29	1.962	69.823			
00:00:29	0.555	69.823			
00:00:29	0.574	69.823			
00:00:29	-0.528	69.823			
00:00:29	-0.585	69.823			
00:00:29	-0.612	69.823			
00:00:29	-1.436	69.823			
00:00:29	-0.645	69.823			
00:00:29	-1.001	69.823			
00:00:29	-0.736	69.823			
00:00:29	0.083	69.823			
00:00:29	-0.217	69.823			
00:00:29	0.879	69.823			
00:00:29	0.907	69.823			
00:00:29	1.042	69.823			
00:00:29	1.904	69.823			
00:00:29	1.400	69.823			
00:00:29	2.269	69.823			
00:00:29	2.367	69.823			
00:00:29	2.125	69.823			
00:00:29	2.770	69.823			
00:00:29	1.927	69.823			
00:00:29	2.085	69.823			
00:00:29	1.880	69.823			
00:00:29	1.069	69.823			
00:00:29	1.436	69.823			
00:00:29	0.728	69.823			
00:00:29	0.827	69.823			
00:00:29	1.081	69.823			
00:00:29	0.337	69.823			
00:00:29	0.858	69.823			
00:00:29	0.290	69.823			
00:00:29	0.347	69.823			
00:00:29	0.791	69.823			
00:00:29	-0.051	69.823			
00:00:29	0.297	69.823			
00:00:29	-0.233	69.823			
00:00:29	-0.487	69.823			
00:00:29	0.062	69.823			
00:00:29	-0.675	69.823			
00:00:29	-0.045	69.823			
00:00:29	0.076	69.823			
00:00:29	-0.143	69.823			
00:00:29	0.793	69.823			
00:00:30	0.135	69.823			
00:00:30	0.542	69.823			
00:00:30	0.816	69.823			
00:00:30	0.199	69.823			
00:00:30	0.866	69.823			
00:00:30	0.253	69.823			
00:00:30	0.105	69.823			
00:00:30	0.479	69.823			
00:00:30	-0.233	69.823			
00:00:30	0.566	69.823			
00:00:30	0.241	69.823			
00:00:30	0.302	69.823			
00:00:30	0.901	69.823			
00:00:30	0.096	69.823			
00:00:30	0.544	69.823			
00:00:30	0.333	69.823			
00:00:30	-0.176	69.823			
00:00:30	0.442	69.823			
00:00:30	-0.169	69.823			
00:00:30	0.417	69.823			
00:00:30	0.586	69.823			
00:00:30	0.196	69.823			
00:00:30	0.788	69.823			
00:00:30	0.217	69.823			
00:00:30	0.312	69.823			
00:00:30	0.533	69.823			
00:00:30	-0.008	69.823			
00:00:30	0.590	69.823			
00:00:30	0.124	69.823			
00:00:30	0.203	69.823			
00:00:30	0.874	69.823			
00:00:30	0.863	69.823			
00:00:30	2.285	69.823			
00:00:30	2.818	69.823			
00:00:30	3.835	69.823			
00:00:30	5.916	69.823			
00:00:30	6.993	69.823			
00:00:30	9.145	69.823			
00:00:30	10.778	69.823			
00:00:30	11.982	69.823			
00:00:30	14.008	69.823			
00:00:30	14.320	69.823			
00:00:30	15.021	69.823			
00:00:30	15.383	69.823			
00:00:30	15.108	69.823			
00:00:30	15.695	69.823			
00:00:30	15.030	69.823			
00:00:30	14.885	69.823			
00:00:30	14.818	69.823			
00:00:30	13.573	69.823			
00:00:30	13.663	69.823			
00:00:30	12.469	69.823			
00:00:30	11.684	69.823			
00:00:30	11.264	69.823			
00:00:30	9.681	69.823			
00:00:30	9.497	69.823			
00:00:30	8.594	71.111			
00:00:30	7.782	71.111			
00:00:30	7.761	71.111			
00:00:30	6.176	71.111			
00:00:30	5.826	71.116			
00:00:30	4.894	71.116			
00:00:30	3.635	71.116			
00:00:30	3.545	71.116			
00:00:30	1.933	71.116			
00:00:30	1.507	71.116			
00:00:30	1.089	71.116			
00:00:30	-0.087	71.116			
00:00:30	0.262	71.116			
00:00:30	-0.421	71.116			
00:00:30	-0.318	71.116			
00:00:30	0.284	71.116			
00:00:30	-0.083	71.116			
00:00:30	0.941	71.116			
00:00:30	0.883	71.116			
00:00:30	1.060	71.116			
00:00:30	1.955	71.116			
00:00:30	1.384	71.116			
00:00:30	2.114	71.116			
00:00:30	2.057	71.116			
00:00:30	1.723	71.116			
00:00:30	2.618	71.116			
00:00:30	1.970	71.116			
00:00:30	2.168	71.116			
00:00:30	1.858	71.116			
00:00:30	1.109	71.116			
00:00:30	1.622	71.116			
00:00:30	0.841	71.116			
00:00:30	0.764	71.116			
00:00:30	0.706	71.116			
00:00:30	-0.237	71.116			
00:00:30	0.297	71.116			
00:00:30	-0.295	71.116			
00:00:30	-0.386	71.116			
00:00:30	-0.056	71.116			
00:00:30	-0.977	71.116			
00:00:30	-0.517	71.116			
00:00:30	-0.959	71.116			
00:00:30	-1.173	71.116			
00:00:30	-0.411	71.116			
00:00:30	-1.287	71.116			
00:00:30	-0.869	71.116			
00:00:30	-0.819	71.116			
00:00:30	-1.209	71.116			
00:00:30	-0.505	71.116			
00:00:30	-1.129	71.116			
00:00:30	-0.888	71.116			
00:00:30	-0.887	71.116			
00:00:30	-1.369	71.116			
00:00:30	-0.530	71.116			
00:00:30	-0.838	71.116			
00:00:30	-0.468	71.116			
00:00:30	-0.163	71.116			
00:00:30	-0.713	71.116			
00:00:30	0.035	71.116			
00:00:30	-0.270	71.116			
00:00:30	-0.191	71.116			
00:00:30	0.540	71.116			
00:00:30	-0.118	71.116			
00:00:30	0.343	71.116			
00:00:30	0.163	71.116			
00:00:30	-0.049	71.116			
00:00:30	0.493	71.116			
00:00:30	-0.038	71.116			
00:00:30	0.489	71.116			
00:00:30	0.707	71.116			
00:00:30	0.245	71.116			
00:00:30	0.928	71.116			
00:00:31	0.287	71.116			
00:00:31	0.287	71.116			
00:00:31	0.327	71.116			
00:00:31	-0.359	71.116			
00:00:31	0.192	71.116			
00:00:31	-0.287	71.116			
00:00:31	-0.239	71.116			
00:00:31	0.130	71.116			
00:00:31	-0.441	71.116			
00:00:31	0.481	71.116			
00:00:31	0.593	71.116			
00:00:31	1.254	71.116			
00:00:31	3.069	71.116			
00:00:31	4.032	71.116			
00:00:31	6.319	71.116			
00:00:31	8.093	71.116			
00:00:31	9.632	71.116			
00:00:31	11.837	71.116			
00:00:31	12.762	71.116			
00:00:31	14.327	71.116			
00:00:31	15.313	71.116			
00:00:31	15.550	71.116			
00:00:31	16.682	71.116			
00:00:31	16.461	71.116			
00:00:31	16.641	71.116			
00:00:31	16.836	71.116			
00:00:31	15.712	71.116			
00:00:31	15.650	71.116			
00:00:31	14.388	71.116			
00:00:31	13.596	71.116			
00:00:31	13.246	71.116			
00:00:31	11.872	71.116			
00:00:31	11.594	71.776			
00:00:31	10.346	71.776			
00:00:31	9.386	71.776			
00:00:31	9.260	71.776			
00:00:31	7.837	71.781			
00:00:31	7.552	71.781			
00:00:31	6.707	71.781			
00:00:31	5.483	71.781			
00:00:31	5.301	71.781			
00:00:31	3.958	71.781			
00:00:31	3.502	71.781			
00:00:31	2.932	71.781			
00:00:31	1.605	71.781			
00:00:31	1.503	71.781			
00:00:31	0.521	71.781			
00:00:31	0.420	71.781			
00:00:31	0.561	71.781			
00:00:31	0.089	71.781			
00:00:31	0.789	71.781			
00:00:31	0.553	71.781			
00:00:31	0.778	71.781			
00:00:31	1.346	71.781			
00:00:31	0.715	71.781			
00:00:31	1.338	71.781			
00:00:31	1.135	71.781			
00:00:31	1.097	71.781			
00:00:31	1.882	71.781			
00:00:31	1.394	71.781			
00:00:31	1.839	71.781			
00:00:31	1.717	71.781			
00:00:31	0.999	71.781			
00:00:31	1.404	71.781			
00:00:31	0.571	71.781			
00:00:31	0.580	71.781			
00:00:31	0.666	71.781			
00:00:31	0.089	71.781			
00:00:31	0.483	71.781			
00:00:31	-0.293	71.781			
00:00:31	-0.435	71.781			
00:00:31	-0.373	71.781			
00:00:31	-1.087	71.781			
00:00:31	-0.470	71.781			
00:00:31	-0.723	71.781			
00:00:31	-0.699	71.781			
00:00:31	-0.208	71.781			
00:00:31	-0.841	71.781			
00:00:31	-0.541	71.781			
00:00:31	-0.694	71.781			
00:00:31	-1.184	71.781			
00:00:31	-0.839	71.781			
00:00:31	-1.447	71.781			
00:00:31	-0.910	71.781			
00:00:31	-0.920	71.781			
00:00:31	-1.302	71.781			
00:00:31	-0.667	71.781			
00:00:31	-1.295	71.781			
00:00:31	-0.981	71.781			
00:00:31	-0.675	71.781			
00:00:31	-1.165	71.781			
00:00:31	-0.421	71.781			
00:00:31	-0.752	71.781			
00:00:31	-0.755	71.781			
00:00:31	-0.291	71.781			
00:00:31	-0.874	71.781			
00:00:31	-0.184	71.781			
00:00:31	-0.162	71.781			
00:00:31	-0.038	71.781			
00:00:31	0.781	71.781			
00:00:31	0.427	71.781			
00:00:31	0.904	71.781			
00:00:31	0.773	71.781			
00:00:31	0.327	71.781			
00:00:31	0.662	71.781			
00:00:31	-0.152	71.781			
00:00:31	0.011	71.781			
00:00:31	0.236	71.781			
00:00:31	-0.151	71.781			
00:00:31	0.405	71.781			
00:00:31	-0.341	71.781			
00:00:31	-0.350	71.781			
00:00:31	-0.255	71.781			
00:00:31	-1.033	71.781			
00:00:31	-0.519	71.781			
00:00:31	-0.939	71.781			
00:00:31	-0.891	71.781			
00:00:31	0.086	71.781			
00:00:31	0.366	71.781			
00:00:31	2.073	71.781			
00:00:31	3.307	71.781			
00:00:31	4.889	71.781			
00:00:31	7.144	71.781			
00:00:31	8.308	71.781			
00:00:31	10.499	71.781			
00:00:31	12.121	71.781			
00:00:31	13.203	71.781			
00:00:31	15.122	71.781			
00:00:32	15.387	73.148			
00:00:32	16.019	73.148			
00:00:32	16.512	73.148			
00:00:32	16.071	73.148			
00:00:32	16.491	73.148			
00:00:32	15.652	73.148			
00:00:32	15.216	73.148			
00:00:32	14.951	73.148			
00:00:32	13.473	73.148			
00:00:32	13.077	73.148			
00:00:32	11.948	73.148			
00:00:32	10.731	73.148			
00:00:32	10.245	137.627			
00:00:32	8.717	137.627			
00:00:32	8.416	137.627			
00:00:32	7.630	137.627			
00:00:32	6.664	137.627			
00:00:32	6.518	137.627			
00:00:32	5.218	137.627			
00:00:32	4.889	137.627			
00:00:32	4.424	137.627			
00:00:32	3.337	137.627			
00:00:32	3.489	137.627			
00:00:32	2.440	137.627			
00:00:32	2.028	137.627			
00:00:32	1.728	137.627			
00:00:32	0.715	137.627			
00:00:32	1.074	137.627			
00:00:32	0.595	137.627			
00:00:32	0.672	137.627			
00:00:32	1.214	137.627			
00:00:32	0.672	137.627			
00:00:32	1.326	137.627			
00:00:32	1.089	137.627			
00:00:32	1.010	137.627			
00:00:32	1.733	137.627			
00:00:32	1.218	137.627			
00:00:32	1.579	137.627			
00:00:32	1.581	137.627			
00:00:32	1.108	137.627			
00:00:32	1.682	137.627			
00:00:32	1.150	137.627			
00:00:32	1.184	137.627			
00:00:32	1.204	137.627			
00:00:32	0.623	137.627			
00:00:32	0.964	137.627			
00:00:32	0.406	137.627			
00:00:32	0.399	137.627			
00:00:32	0.533	137.627			
00:00:32	-0.420	137.627			
00:00:32	-0.052	137.627			
00:00:32	-0.575	137.627			
00:00:32	-0.757	137.627			
00:00:32	-0.400	137.627			
00:00:32	-1.049	137.627			
00:00:32	-0.676	137.627			
00:00:32	-0.823	137.627			
00:00:32	-1.154	137.627			
00:00:32	-0.787	137.627			
00:00:32	-1.606	137.627			
00:00:32	-1.280	137.627			
00:00:32	-1.193	137.627			
00:00:32	-1.605	137.627			
00:00:32	-1.031	137.627			
00:00:32	-1.704	137.627			
00:00:32	-1.548	137.627			
00:00:32	-1.293	137.627			
00:00:32	-1.657	137.627			
00:00:32	-0.844	137.627			
00:00:32	-1.181	137.627			
00:00:32	-1.041	137.627			
00:00:32	-0.578	137.627			
00:00:32	-1.037	137.627			
00:00:32	-0.369	137.627			
00:00:32	-0.562	137.627			
00:00:32	-0.520	137.627			
00:00:32	0.247	137.627			
00:00:32	-0.074	137.627			
00:00:32	0.392	137.627			
00:00:32	0.470	137.627			
00:00:32	0.283	137.627			
00:00:32	0.885	137.627			
00:00:32	0.328	137.627			
00:00:32	0.543	137.627			
00:00:32	0.391	137.627			
00:00:32	-0.244	137.627			
00:00:32	0.231	137.627			
00:00:32	-0.311	137.627			
00:00:32	-0.254	137.627			
00:00:32	0.024	137.627			
00:00:32	-0.760	137.627			
00:00:32	-0.492	137.627			
00:00:32	-0.955	137.627			
00:00:32	-1.039	137.627			
00:00:32	-0.522	137.627			
00:00:32	-0.975	137.627			
00:00:32	-0.465	137.627			
00:00:32	-0.523	137.627			
00:00:32	-0.110	137.627			
00:00:32	1.385	137.627			
00:00:32	2.118	137.627			
00:00:32	3.970	137.627			
00:00:32	5.441	137.627			
00:00:32	6.729	137.627			
00:00:32	9.100	137.627			
00:00:32	10.293	137.627			
00:00:32	12.183	137.627			
00:00:32	13.717	137.627			
00:00:32	14.338	137.627			
00:00:32	15.731	137.627			
00:00:32	15.781	137.627			
00:00:32	16.125	137.627			
00:00:32	16.265	137.627			
00:00:32	15.301	137.627			
00:00:32	15.394	137.627			
00:00:32	14.419	137.627			
00:00:32	13.621	137.627			
00:00:32	13.274	137.627			
00:00:32	11.824	137.627			
00:00:32	11.350	137.627			
00:00:32	10.291	104.701			
00:00:32	9.333	104.701			
00:00:32	9.382	104.701			
00:00:32	8.130	104.701			
00:00:32	7.751	104.701			
00:00:32	6.986	104.701			
00:00:32	5.759	104.701			
00:00:32	5.579	104.701			
00:00:33	4.255	104.701			
00:00:33	3.711	104.701			
00:00:33	3.066	104.701			
00:00:33	1.694	104.701			
00:00:33	1.658	104.701			
00:00:33	0.756	104.701			
00:00:33	0.490	104.701			
00:00:33	0.773	104.701			
00:00:33	0.087	104.701			
00:00:33	0.618	104.701			
00:00:33	0.439	104.701			
00:00:33	0.383	104.701			
00:00:33	0.919	104.701			
00:00:33	0.544	104.701			
00:00:33	1.167	104.701			
00:00:33	1.031	104.701			
00:00:33	0.703	104.701			
00:00:33	1.328	104.701			
00:00:33	0.893	104.701			
00:00:33	1.294	104.701			
00:00:33	1.523	104.701			
00:00:33	1.109	104.701			
00:00:33	1.783	104.701			
00:00:33	1.209	104.701			
00:00:33	1.154	104.701			
00:00:33	1.364	104.701			
00:00:33	0.884	104.701			
00:00:33	1.319	104.701			
00:00:33	0.804	104.701			
00:00:33	0.481	104.701			
00:00:33	0.732	104.701			
00:00:33	-0.129	104.701			
00:00:33	0.135	104.701			
00:00:33	-0.324	104.701			
00:00:33	-0.901	104.701			
00:00:33	-0.720	104.701			
00:00:33	-1.614	104.701			
00:00:33	-1.306	104.701			
00:00:33	-1.325	104.701			
00:00:33	-1.719	104.701			
00:00:33	-0.990	104.701			
00:00:33	-1.583	104.701			
00:00:33	-1.249	104.701			
00:00:33	-1.063	104.701			
00:00:33	-1.659	104.701			
00:00:33	-0.845	104.701			
00:00:33	-1.023	104.701			
00:00:33	-0.687	104.701			
00:00:33	-0.276	104.701			
00:00:33	-0.812	104.701			
00:00:33	-0.155	104.701			
00:00:33	-0.306	104.701			
00:00:33	-0.175	104.701			
00:00:33	0.392	104.701			
00:00:33	-0.156	104.701			
00:00:33	0.281	104.701			
00:00:33	0.203	104.701			
00:00:33	0.078	104.701			
00:00:33	0.672	104.701			
00:00:33	0.019	104.701			
00:00:33	0.336	104.701			
00:00:33	0.439	104.701			
00:00:33	-0.047	104.701			
00:00:33	0.510	104.701			
00:00:33	-0.067	104.701			
00:00:33	0.057	104.701			
00:00:33	0.193	104.701			
00:00:33	-0.481	104.701			
00:00:33	-0.020	104.701			
00:00:33	-0.517	104.701			
00:00:33	-0.614	104.701			
00:00:33	-0.343	104.701			
00:00:33	-1.090	104.701			
00:00:33	-0.589	104.701			
00:00:33	-0.846	104.701			
00:00:33	-0.731	104.701			
00:00:33	0.246	104.701			
00:00:33	0.264	104.701			
00:00:33	1.511	104.701			
00:00:33	2.259	104.701			
00:00:33	2.997	104.701			
00:00:33	5.087	104.701			
00:00:33	6.180	104.701			
00:00:33	8.209	104.701			
00:00:33	9.828	104.701			
00:00:33	10.808	104.701			
00:00:33	12.576	104.701			
00:00:33	13.050	104.701			
00:00:33	13.860	104.701			
00:00:33	14.545	104.701			
00:00:33	14.078	104.701			
00:00:33	14.449	104.701			
00:00:33	13.839	104.701			
00:00:33	13.587	104.701			
00:00:33	13.520	104.701			
00:00:33	12.122	104.701			
00:00:33	11.604	104.701			
00:00:33	10.589	104.701			
00:00:33	9.843	104.701			
00:00:33	9.831	104.701			
00:00:33	8.587	71.111			
00:00:33	8.394	71.111			
00:00:33	7.834	71.111			
00:00:33	6.706	71.111			
00:00:33	6.430	71.116			
00:00:33	4.878	71.116			
00:00:33	4.429	71.116			
00:00:33	4.086	71.116			
00:00:33	3.021	71.116			
00:00:33	2.966	71.116			
00:00:33	1.716	71.116			
00:00:33	1.173	71.116			
00:00:33	0.976	71.116			
00:00:33	-0.077	71.116			
00:00:33	0.231	71.116			
00:00:33	-0.213	71.116			
00:00:33	-0.318	71.116			
00:00:33	0.379	71.116			
00:00:33	-0.136	71.116			
00:00:33	0.468	71.116			
00:00:33	0.605	71.116			
00:00:33	0.469	71.116			
00:00:33	1.141	71.116			
00:00:33	0.678	71.116			
00:00:33	1.207	71.116			
00:00:33	1.334	71.116			
00:00:33	0.969	71.116			
00:00:33	1.580	71.116			
00:00:34	1.038	71.116			
00:00:34	1.093	71.116			
00:00:34	1.266	71.116			
00:00:34	0.745	71.116			
00:00:34	1.324	71.116			
00:00:34	0.934	71.116			
00:00:34	0.822	71.116			
00:00:34	0.795	71.116			
00:00:34	-0.190	71.116			
00:00:34	0.068	71.116			
00:00:34	-0.417	71.116			
00:00:34	-0.834	71.116			
00:00:34	-0.368	71.116			
00:00:34	-1.131	71.116			
00:00:34	-0.878	71.116			
00:00:34	-1.067	71.116			
00:00:34	-1.547	71.116			
00:00:34	-1.261	71.116			
00:00:34	-2.101	71.116			
00:00:34	-2.097	71.116			
00:00:34	-1.929	71.116			
00:00:34	-2.459	71.116			
00:00:34	-1.707	71.116			
00:00:34	-2.169	71.116			
00:00:34	-1.796	71.116			
00:00:34	-1.074	71.116			
00:00:34	-1.529	71.116			
00:00:34	-0.609	71.116			
00:00:34	-0.782	71.116			
00:00:34	-0.566	71.116			
00:00:34	0.104	71.116			
00:00:34	-0.582	71.116			
00:00:34	-0.128	71.116			
00:00:34	-0.401	71.116			
00:00:34	-0.753	71.116			
00:00:34	-0.195	71.116			
00:00:34	-0.944	71.116			
00:00:34	-0.575	71.116			
00:00:34	-0.488	71.116			
00:00:34	-0.914	71.116			
00:00:34	-0.173	71.116			
00:00:34	-0.739	71.116			
00:00:34	-0.374	71.116			
00:00:34	-0.019	71.116			
00:00:34	-0.605	71.116			
00:00:34	0.045	71.116			
00:00:34	-0.545	71.116			
00:00:34	-0.746	71.116			
00:00:34	-0.517	71.116			
00:00:34	-1.234	71.116			
00:00:34	-0.499	71.116			
00:00:34	-0.678	71.116			
00:00:34	-0.863	71.116			
00:00:34	-0.082	71.116			
00:00:34	-0.794	71.116			
00:00:34	-0.124	71.116			
00:00:34	0.031	71.116			
00:00:34	0.010	71.116			
00:00:34	1.462	71.116			
00:00:34	1.871	71.116			
00:00:34	3.895	71.116			
00:00:34	5.689	71.116			
00:00:34	6.951	71.116			
00:00:34	9.532	71.116			
00:00:34	10.514	71.116			
00:00:34	12.065	71.116			
00:00:34	13.372	71.116			
00:00:34	13.497	71.116			
00:00:34	14.613	71.116			
00:00:34	14.427	71.116			
00:00:34	14.421	71.116			
00:00:34	14.813	71.116			
00:00:34	13.981	71.116			
00:00:34	14.222	71.116			
00:00:34	13.338	71.116			
00:00:34	12.431	71.116			
00:00:34	12.404	71.116			
00:00:34	10.849	71.116			
00:00:34	10.481	71.116			
00:00:34	9.787	71.116			
00:00:34	8.842	71.776			
00:00:34	9.031	71.776			
00:00:34	7.642	71.776			
00:00:34	7.251	71.776			
00:00:34	6.810	71.781			
00:00:34	5.518	71.781			
00:00:34	5.433	71.781			
00:00:34	4.119	71.781			
00:00:34	3.278	71.781			
00:00:34	2.830	71.781			
00:00:34	1.438	71.781			
00:00:34	1.352	71.781			
00:00:34	0.066	71.781			
00:00:34	-0.567	71.781			
00:00:34	-0.257	71.781			
00:00:34	-1.034	71.781			
00:00:34	-0.329	71.781			
00:00:34	-0.340	71.781			
00:00:34	-0.556	71.781			
00:00:34	0.288	71.781			
00:00:34	-0.203	71.781			
00:00:34	0.446	71.781			
00:00:34	0.796	71.781			
00:00:34	0.682	71.781			
00:00:34	1.584	71.781			
00:00:34	1.144	71.781			
00:00:34	1.312	71.781			
00:00:34	1.674	71.781			
00:00:34	1.061	71.781			
00:00:34	1.627	71.781			
00:00:34	0.995	71.781			
00:00:34	0.941	71.781			
00:00:34	1.094	71.781			
00:00:34	0.020	71.781			
00:00:34	0.367	71.781			
00:00:34	-0.172	71.781			
00:00:34	-0.807	71.781			
00:00:34	-0.521	71.781			
00:00:34	-1.455	71.781			
00:00:34	-1.210	71.781			
00:00:34	-1.584	71.781			
00:00:34	-2.184	71.781			
00:00:34	-1.488	71.781			
00:00:34	-2.188	71.781			
00:00:34	-1.850	71.781			
00:00:34	-1.906	71.781			
00:00:34	-2.604	71.781			
00:00:34	-1.802	71.781			
00:00:35	-2.256	71.781			
00:00:35	-1.763	71.781			
00:00:35	-1.116	71.781			
